Data Counter, Data Time, Angle, Counter, Left Encoder Counts, Right Encoder Counts;
0, 0.045353, 0.000, 3.602, 6825, -5253, 00000000, 359.11913681030273;
1, 0.092243, 0.000, 7.197, 6825, -5253, 00000000, 359.11913681030273;
2, 0.139132, 359.892, -349.200, 6824, -5253, 00000000, 359.11913681030273;
3, 0.185923, 359.783, -345.597, 6823, -5253, 00000000, 359.11913681030273;
4, 0.248369, 359.133, -341.971, 6819, -5251, 00000000, 359.11913681030273;
5, 0.295250, 358.916, -338.396, 6818, -5250, 00000000, 359.11913681030273;
6, 0.342082, 358.808, -334.796, 6818, -5249, 00000000, 359.11913681030273;
7, 0.388937, 358.808, -331.203, 6818, -5249, 00000000, 359.11913681030273;
8, 0.436011, 358.808, -327.601, 6818, -5249, 00000000, 359.11913681030273;
9, 0.498451, 358.808, -323.968, 6818, -5249, 00000000, 359.11913681030273;
10, 0.545290, 358.808, -320.400, 6818, -5249, 00000000, 359.11913681030273;
11, 0.592234, 358.808, -316.798, 6818, -5249, 00000000, 359.11913681030273;
12, 0.638971, 358.808, -313.196, 6818, -5249, 00000000, 359.11913681030273;
13, 0.685781, 358.808, -309.603, 6818, -5249, 00000000, 359.11913681030273;
14, 0.748339, 358.808, -305.974, 6818, -5249, 00000000, 359.11913681030273;
15, 0.795248, 358.808, -302.396, 6818, -5249, 00000000, 359.11913681030273;
16, 0.842090, 358.808, -298.798, 6818, -5249, 00000000, 359.11913681030273;
17, 0.889135, 358.808, -295.197, 6818, -5249, 00000000, 359.11913681030273;
18, 0.935895, 358.808, -291.603, 6818, -5249, 00000000, 359.11913681030273;
19, 0.998366, 358.808, -287.975, 6818, -5249, 00000000, 359.11913681030273;
20, 1.045190, 358.808, -284.401, 6818, -5249, 00000000, 359.11913681030273;
21, 1.092071, 358.808, -280.798, 6818, -5249, 00000000, 359.11913681030273;
22, 1.138915, 358.808, -277.202, 6818, -5249, 00000000, 359.11913681030273;
23, 1.185771, 358.808, -273.601, 6818, -5249, 00000000, 359.11913681030273;
24, 1.248318, 358.808, -269.968, 6818, -5249, 00000000, 359.11913681030273;
25, 1.295292, 358.808, -266.402, 6818, -5249, 00000000, 359.11913681030273;
26, 1.342191, 358.808, -262.798, 6818, -5249, 00000000, 359.11913681030273;
27, 1.389011, 358.808, -259.198, 6818, -5249, 00000000, 359.11913681030273;
28, 1.435927, 358.808, -255.603, 6818, -5249, 00000000, 359.11913681030273;
29, 1.498333, 358.808, -251.969, 6818, -5249, 00000000, 359.11913681030273;
30, 1.545243, 358.808, -248.401, 6818, -5249, 00000000, 359.11913681030273;
31, 1.592070, 358.808, -244.800, 6818, -5249, 00000000, 359.11913681030273;
32, 1.639216, 358.808, -241.202, 6818, -5249, 00000000, 359.11913681030273;
33, 1.685817, 358.808, -237.596, 6818, -5249, 00000000, 359.11913681030273;
34, 1.748476, 358.808, -233.965, 6818, -5249, 00000000, 359.11913681030273;
35, 1.795326, 358.808, -230.403, 6818, -5249, 00000000, 359.11913681030273;
36, 1.842190, 358.808, -226.801, 6818, -5249, 00000000, 359.11913681030273;
37, 1.889003, 358.808, -223.202, 6818, -5249, 00000000, 359.11913681030273;
38, 1.935847, 358.808, -219.602, 6818, -5249, 00000000, 359.11913681030273;
39, 1.998393, 358.808, -215.974, 6818, -5249, 00000000, 359.11913681030273;
40, 2.045419, 358.808, -212.398, 6818, -5249, 00000000, 359.11913681030273;
41, 2.092198, 358.808, -208.796, 6818, -5249, 00000000, 359.11913681030273;
42, 2.139143, 358.808, -205.198, 6818, -5249, 00000000, 359.11913681030273;
43, 2.185942, 358.808, -201.600, 6818, -5249, 00000000, 359.11913681030273;
44, 2.248372, 358.808, -197.966, 6818, -5249, 00000000, 359.11913681030273;
45, 2.295259, 358.808, -194.396, 6818, -5249, 00000000, 359.11913681030273;
46, 2.342077, 358.808, -190.799, 6818, -5249, 00000000, 359.11913681030273;
47, 2.388957, 358.808, -187.199, 6818, -5249, 00000000, 359.11913681030273;
48, 2.435818, 358.808, -183.601, 6818, -5249, 00000000, 359.11913681030273;
49, 2.498484, 358.808, -179.967, 6818, -5249, 00000000, 359.11913681030273;
50, 2.545333, 358.808, -176.400, 6818, -5249, 00000000, 359.11913681030273;
51, 2.592178, 358.808, -172.800, 6818, -5249, 00000000, 359.11913681030273;
52, 2.639034, 358.808, -169.198, 6818, -5249, 00000000, 359.11913681030273;
53, 2.685911, 358.808, -165.603, 6818, -5249, 00000000, 359.11913681030273;
54, 2.748365, 358.808, -161.969, 6818, -5249, 00000000, 359.11913681030273;
55, 2.795212, 358.808, -158.399, 6818, -5249, 00000000, 359.11913681030273;
56, 2.842128, 358.808, -154.797, 6818, -5249, 00000000, 359.11913681030273;
57, 2.888938, 358.808, -151.202, 6818, -5249, 00000000, 359.11913681030273;
58, 2.935921, 358.808, -147.597, 6818, -5249, 00000000, 359.11913681030273;
59, 2.998433, 358.808, -143.961, 6818, -5249, 00000000, 359.11913681030273;
60, 3.045368, 358.808, -140.399, 6818, -5249, 00000000, 359.11913681030273;
61, 3.092180, 358.808, -136.800, 6818, -5249, 00000000, 359.11913681030273;
62, 3.138959, 358.808, -133.197, 6818, -5249, 00000000, 359.11913681030273;
63, 3.185837, 358.808, -129.598, 6818, -5249, 00000000, 359.11913681030273;
64, 3.248340, 358.808, -125.978, 6818, -5249, 00000000, 359.11913681030273;
65, 3.295194, 358.808, -122.402, 6818, -5249, 00000000, 359.11913681030273;
66, 3.342169, 358.808, -118.802, 6818, -5249, 00000000, 359.11913681030273;
67, 3.389096, 358.808, -115.196, 6818, -5249, 00000000, 359.11913681030273;
68, 3.435908, 358.808, -111.596, 6818, -5249, 00000000, 359.11913681030273;
69, 3.498382, 358.808, -107.965, 6818, -5249, 00000000, 359.11913681030273;
70, 3.545259, 358.808, -104.402, 6818, -5249, 00000000, 359.11913681030273;
71, 3.592056, 358.808, -100.797, 6818, -5249, 00000000, 359.11913681030273;
72, 3.638932, 358.808, -97.200, 6818, -5249, 00000000, 359.11913681030273;
73, 3.685772, 358.808, -93.599, 6818, -5249, 00000000, 359.11913681030273;
74, 3.748314, 358.808, -89.979, 6818, -5249, 00000000, 359.11913681030273;
75, 3.795188, 358.808, -86.402, 6818, -5249, 00000000, 359.11913681030273;
76, 3.842165, 358.808, -82.803, 6818, -5249, 00000000, 359.11913681030273;
77, 3.888988, 358.808, -79.197, 6818, -5249, 00000000, 359.11913681030273;
78, 3.935869, 358.808, -75.597, 6818, -5249, 00000000, 359.11913681030273;
79, 3.998354, 358.808, -71.977, 6818, -5249, 00000000, 359.11913681030273;
80, 4.045152, 358.808, -68.403, 6818, -5249, 00000000, 359.11913681030273;
81, 4.092076, 358.808, -64.800, 6818, -5249, 00000000, 359.11913681030273;
82, 4.138938, 358.808, -61.199, 6818, -5249, 00000000, 359.11913681030273;
83, 4.185777, 358.808, -57.598, 6818, -5249, 00000000, 359.11913681030273;
84, 4.248456, 358.808, -53.970, 6818, -5249, 00000000, 359.11913681030273;
85, 4.295309, 358.808, -50.400, 6818, -5249, 00000000, 359.11913681030273;
86, 4.342142, 358.808, -46.802, 6818, -5249, 00000000, 359.11913681030273;
87, 4.388992, 358.808, -43.202, 6818, -5249, 00000000, 359.11913681030273;
88, 4.435837, 358.808, -39.599, 6818, -5249, 00000000, 359.11913681030273;
89, 4.498307, 358.808, -35.981, 6818, -5249, 00000000, 359.11913681030273;
90, 4.545167, 358.808, -32.403, 6818, -5249, 00000000, 359.11913681030273;
91, 4.592081, 358.808, -28.800, 6818, -5249, 00000000, 359.11913681030273;
92, 4.638947, 358.808, -25.200, 6818, -5249, 00000000, 359.11913681030273;
93, 4.685950, 358.808, -21.598, 6818, -5249, 00000000, 359.11913681030273;
94, 4.748367, 358.808, -17.965, 6818, -5249, 00000000, 359.11913681030273;
95, 4.795258, 358.808, -14.403, 6818, -5249, 00000000, 359.11913681030273;
96, 4.842133, 358.808, -10.796, 6818, -5249, 00000000, 359.11913681030273;
97, 4.888891, 358.808, -7.198, 6818, -5249, 00000000, 359.11913681030273;
98, 4.935781, 358.808, -3.598, 6818, -5249, 00000000, 359.11913681030273;
99, 4.998325, 358.808, 0.021, 6818, -5249, 00000000, 359.11913681030273;
100, 5.045389, 358.808, -356.398, 6818, -5249, 00000000, 358.1525883481283;
101, 5.092199, 358.808, -352.797, 6818, -5249, 00000000, 358.1525883481283;
102, 5.139143, 358.808, -349.199, 6818, -5249, 00000000, 358.1525883481283;
103, 5.185975, 358.699, -345.601, 6817, -5249, 00000000, 358.1525883481283;
104, 5.248418, 358.266, -341.972, 6814, -5248, 00000000, 358.1525883481283;
105, 5.295222, 358.266, -338.402, 6814, -5248, 00000000, 358.1525883481283;
106, 5.342022, 358.266, -334.802, 6814, -5248, 00000000, 358.1525883481283;
107, 5.388962, 358.266, -331.198, 6814, -5248, 00000000, 358.1525883481283;
108, 5.435793, 358.266, -327.597, 6814, -5248, 00000000, 358.1525883481283;
109, 5.498468, 358.266, -323.960, 6814, -5248, 00000000, 358.1525883481283;
110, 5.545345, 358.266, -320.401, 6814, -5248, 00000000, 358.1525883481283;
111, 5.592176, 358.266, -316.796, 6814, -5248, 00000000, 358.1525883481283;
112, 5.639020, 358.266, -313.200, 6814, -5248, 00000000, 358.1525883481283;
113, 5.685899, 358.266, -309.601, 6814, -5248, 00000000, 358.1525883481283;
114, 5.748380, 358.266, -305.973, 6814, -5248, 00000000, 358.1525883481283;
115, 5.795346, 358.266, -302.396, 6814, -5248, 00000000, 358.1525883481283;
116, 5.842168, 358.266, -298.802, 6814, -5248, 00000000, 358.1525883481283;
117, 5.889136, 358.266, -295.198, 6814, -5248, 00000000, 358.1525883481283;
118, 5.935952, 358.266, -291.600, 6814, -5248, 00000000, 358.1525883481283;
119, 5.998640, 358.266, -287.957, 6814, -5248, 00000000, 358.1525883481283;
120, 6.045303, 358.266, -284.398, 6814, -5248, 00000000, 358.1525883481283;
121, 6.092127, 358.266, -280.802, 6814, -5248, 00000000, 358.1525883481283;
122, 6.138981, 358.266, -277.201, 6814, -5248, 00000000, 358.1525883481283;
123, 6.185811, 358.266, -273.597, 6814, -5248, 00000000, 358.1525883481283;
124, 6.248314, 358.266, -269.978, 6814, -5248, 00000000, 358.1525883481283;
125, 6.295271, 358.266, -266.399, 6814, -5248, 00000000, 358.1525883481283;
126, 6.342116, 358.266, -262.801, 6814, -5248, 00000000, 358.1525883481283;
127, 6.389033, 358.266, -259.198, 6814, -5248, 00000000, 358.1525883481283;
128, 6.435952, 358.266, -255.597, 6814, -5248, 00000000, 358.1525883481283;
129, 6.498451, 358.266, -251.968, 6814, -5248, 00000000, 358.1525883481283;
130, 6.545187, 358.266, -248.398, 6814, -5248, 00000000, 358.1525883481283;
131, 6.592096, 358.266, -244.801, 6814, -5248, 00000000, 358.1525883481283;
132, 6.638835, 358.266, -241.203, 6814, -5248, 00000000, 358.1525883481283;
133, 6.685801, 358.266, -237.601, 6814, -5248, 00000000, 358.1525883481283;
134, 6.748427, 358.266, -233.970, 6814, -5248, 00000000, 358.1525883481283;
135, 6.795367, 358.266, -230.396, 6814, -5248, 00000000, 358.1525883481283;
136, 6.842195, 358.266, -226.797, 6814, -5248, 00000000, 358.1525883481283;
137, 6.889010, 358.266, -223.198, 6814, -5248, 00000000, 358.1525883481283;
138, 6.935850, 358.266, -219.599, 6814, -5248, 00000000, 358.1525883481283;
139, 6.998373, 358.266, -215.973, 6814, -5248, 00000000, 358.1525883481283;
140, 7.045207, 358.266, -212.397, 6814, -5248, 00000000, 358.1525883481283;
141, 7.092093, 358.266, -208.801, 6814, -5248, 00000000, 358.1525883481283;
142, 7.138918, 358.266, -205.201, 6814, -5248, 00000000, 358.1525883481283;
143, 7.185918, 358.266, -201.603, 6814, -5248, 00000000, 358.1525883481283;
144, 7.248423, 358.266, -197.967, 6814, -5248, 00000000, 358.1525883481283;
145, 7.295275, 358.266, -194.404, 6814, -5248, 00000000, 358.1525883481283;
146, 7.342072, 358.266, -190.802, 6814, -5248, 00000000, 358.1525883481283;
147, 7.388963, 358.266, -187.200, 6814, -5248, 00000000, 358.1525883481283;
148, 7.435809, 358.266, -183.602, 6814, -5248, 00000000, 358.1525883481283;
149, 7.498241, 358.266, -179.975, 6814, -5248, 00000000, 358.1525883481283;
150, 7.545104, 358.266, -176.399, 6814, -5248, 00000000, 358.1525883481283;
151, 7.592023, 358.266, -172.798, 6814, -5248, 00000000, 358.1525883481283;
152, 7.638978, 358.266, -169.199, 6814, -5248, 00000000, 358.1525883481283;
153, 7.685838, 358.266, -165.604, 6814, -5248, 00000000, 358.1525883481283;
154, 7.748356, 358.266, -161.969, 6814, -5248, 00000000, 358.1525883481283;
155, 7.795152, 358.266, -158.400, 6814, -5248, 00000000, 358.1525883481283;
156, 7.842049, 358.266, -154.802, 6814, -5248, 00000000, 358.1525883481283;
157, 7.888911, 358.266, -151.202, 6814, -5248, 00000000, 358.1525883481283;
158, 7.935796, 358.266, -147.600, 6814, -5248, 00000000, 358.1525883481283;
159, 7.998333, 358.266, -143.973, 6814, -5248, 00000000, 358.1525883481283;
160, 8.045293, 358.266, -140.402, 6814, -5248, 00000000, 358.1525883481283;
161, 8.092172, 358.266, -136.803, 6814, -5248, 00000000, 358.1525883481283;
162, 8.139284, 358.266, -133.203, 6814, -5248, 00000000, 358.1525883481283;
163, 8.185897, 358.266, -129.600, 6814, -5248, 00000000, 358.1525883481283;
164, 8.248321, 358.266, -125.971, 6814, -5248, 00000000, 358.1525883481283;
165, 8.295206, 358.266, -122.403, 6814, -5248, 00000000, 358.1525883481283;
166, 8.341987, 358.266, -118.799, 6814, -5248, 00000000, 358.1525883481283;
167, 8.389115, 358.266, -115.198, 6814, -5248, 00000000, 358.1525883481283;
168, 8.435721, 358.266, -111.600, 6814, -5248, 00000000, 358.1525883481283;
169, 8.498450, 358.266, -107.965, 6814, -5248, 00000000, 358.1525883481283;
170, 8.545328, 358.266, -104.399, 6814, -5248, 00000000, 358.1525883481283;
171, 8.592177, 358.266, -100.802, 6814, -5248, 00000000, 358.1525883481283;
172, 8.639058, 358.266, -97.199, 6814, -5248, 00000000, 358.1525883481283;
173, 8.685799, 358.266, -93.601, 6814, -5248, 00000000, 358.1525883481283;
174, 8.748383, 358.266, -89.970, 6814, -5248, 00000000, 358.1525883481283;
175, 8.795311, 358.266, -86.400, 6814, -5248, 00000000, 358.1525883481283;
176, 8.842164, 358.266, -82.803, 6814, -5248, 00000000, 358.1525883481283;
177, 8.889087, 358.266, -79.204, 6814, -5248, 00000000, 358.1525883481283;
178, 8.935977, 358.266, -75.603, 6814, -5248, 00000000, 358.1525883481283;
179, 8.998391, 358.266, -71.970, 6814, -5248, 00000000, 358.1525883481283;
180, 9.045215, 358.266, -68.399, 6814, -5248, 00000000, 358.1525883481283;
181, 9.092108, 358.266, -64.802, 6814, -5248, 00000000, 358.1525883481283;
182, 9.138987, 358.266, -61.203, 6814, -5248, 00000000, 358.1525883481283;
183, 9.185827, 358.266, -57.598, 6814, -5248, 00000000, 358.1525883481283;
184, 9.248459, 358.266, -53.970, 6814, -5248, 00000000, 358.1525883481283;
185, 9.295278, 358.266, -50.401, 6814, -5248, 00000000, 358.1525883481283;
186, 9.342129, 358.266, -46.800, 6814, -5248, 00000000, 358.1525883481283;
187, 9.388995, 358.266, -43.201, 6814, -5248, 00000000, 358.1525883481283;
188, 9.435893, 358.266, -39.597, 6814, -5248, 00000000, 358.1525883481283;
189, 9.498373, 358.266, -35.975, 6814, -5248, 00000000, 358.1525883481283;
190, 9.545176, 358.266, -32.396, 6814, -5248, 00000000, 358.1525883481283;
191, 9.591975, 358.266, -28.798, 6814, -5248, 00000000, 358.1525883481283;
192, 9.639050, 358.266, -25.198, 6814, -5248, 00000000, 358.1525883481283;
193, 9.685929, 358.266, -21.598, 6814, -5248, 00000000, 358.1525883481283;
194, 9.748309, 358.266, -17.975, 6814, -5248, 00000000, 358.1525883481283;
195, 9.795208, 358.266, -14.400, 6814, -5248, 00000000, 358.1525883481283;
196, 9.842088, 358.266, -10.803, 6814, -5248, 00000000, 358.1525883481283;
197, 9.888975, 358.266, -7.202, 6814, -5248, 00000000, 358.1525883481283;
198, 9.935731, 358.266, -3.600, 6814, -5248, 00000000, 358.1525883481283;
199, 9.998311, 358.266, 0.032, 6814, -5248, 00000000, 358.1525883481283;
200, 10.045165, 358.266, -356.399, 6814, -5248, 00000000, 357.9960423101626;
201, 10.092181, 358.266, -352.799, 6814, -5248, 00000000, 357.9960423101626;
202, 10.139002, 358.266, -349.199, 6814, -5248, 00000000, 357.9960423101626;
203, 10.185911, 358.266, -345.598, 6814, -5248, 00000000, 357.9960423101626;
204, 10.248445, 358.266, -341.969, 6814, -5248, 00000000, 357.9960423101626;
205, 10.295225, 358.266, -338.398, 6814, -5248, 00000000, 357.9960423101626;
206, 10.342026, 358.266, -334.799, 6814, -5248, 00000000, 357.9960423101626;
207, 10.388944, 358.266, -331.202, 6814, -5248, 00000000, 357.9960423101626;
208, 10.435745, 358.266, -327.602, 6814, -5248, 00000000, 357.9960423101626;
209, 10.498201, 358.266, -323.978, 6814, -5248, 00000000, 357.9960423101626;
210, 10.545135, 358.266, -320.397, 6814, -5248, 00000000, 357.9960423101626;
211, 10.591991, 358.266, -316.798, 6814, -5248, 00000000, 357.9960423101626;
212, 10.638980, 358.266, -313.199, 6814, -5248, 00000000, 357.9960423101626;
213, 10.685847, 358.266, -309.596, 6814, -5248, 00000000, 357.9960423101626;
214, 10.748300, 358.266, -305.972, 6814, -5248, 00000000, 357.9960423101626;
215, 10.795229, 358.266, -302.397, 6814, -5248, 00000000, 357.9960423101626;
216, 10.841998, 358.266, -298.796, 6814, -5248, 00000000, 357.9960423101626;
217, 10.888856, 358.266, -295.203, 6814, -5248, 00000000, 357.9960423101626;
218, 10.935807, 358.266, -291.599, 6814, -5248, 00000000, 357.9960423101626;
219, 10.998390, 358.266, -287.973, 6814, -5248, 00000000, 357.9960423101626;
220, 11.045267, 358.266, -284.402, 6814, -5248, 00000000, 357.9960423101626;
221, 11.092131, 358.266, -280.798, 6814, -5248, 00000000, 357.9960423101626;
222, 11.139028, 358.266, -277.200, 6814, -5248, 00000000, 357.9960423101626;
223, 11.185878, 358.266, -273.602, 6814, -5248, 00000000, 357.9960423101626;
224, 11.248328, 358.266, -269.977, 6814, -5248, 00000000, 357.9960423101626;
225, 11.295160, 358.266, -266.403, 6814, -5248, 00000000, 357.9960423101626;
226, 11.341997, 358.266, -262.800, 6814, -5248, 00000000, 357.9960423101626;
227, 11.388905, 358.266, -259.200, 6814, -5248, 00000000, 357.9960423101626;
228, 11.435925, 358.266, -255.597, 6814, -5248, 00000000, 357.9960423101626;
229, 11.498350, 358.266, -251.968, 6814, -5248, 00000000, 357.9960423101626;
230, 11.545226, 358.266, -248.398, 6814, -5248, 00000000, 357.9960423101626;
231, 11.592107, 358.266, -244.799, 6814, -5248, 00000000, 357.9960423101626;
232, 11.638882, 358.266, -241.197, 6814, -5248, 00000000, 357.9960423101626;
233, 11.685727, 358.266, -237.604, 6814, -5248, 00000000, 357.9960423101626;
234, 11.748205, 358.266, -233.978, 6814, -5248, 00000000, 357.9960423101626;
235, 11.795355, 358.266, -230.400, 6814, -5248, 00000000, 357.9960423101626;
236, 11.841990, 358.266, -226.798, 6814, -5248, 00000000, 357.9960423101626;
237, 11.889044, 358.266, -223.203, 6814, -5248, 00000000, 357.9960423101626;
238, 11.935917, 358.266, -219.600, 6814, -5248, 00000000, 357.9960423101626;
239, 11.998316, 358.266, -215.971, 6814, -5248, 00000000, 357.9960423101626;
240, 12.045145, 358.266, -212.402, 6814, -5248, 00000000, 357.9960423101626;
241, 12.092082, 358.266, -208.800, 6814, -5248, 00000000, 357.9960423101626;
242, 12.138889, 358.266, -205.199, 6814, -5248, 00000000, 357.9960423101626;
243, 12.185853, 358.266, -201.601, 6814, -5248, 00000000, 357.9960423101626;
244, 12.248382, 358.266, -197.964, 6814, -5248, 00000000, 357.9960423101626;
245, 12.295268, 358.266, -194.403, 6814, -5248, 00000000, 357.9960423101626;
246, 12.342126, 358.266, -190.803, 6814, -5248, 00000000, 357.9960423101626;
247, 12.388993, 358.266, -187.199, 6814, -5248, 00000000, 357.9960423101626;
248, 12.435871, 358.266, -183.603, 6814, -5248, 00000000, 357.9960423101626;
249, 12.498229, 358.266, -179.975, 6814, -5248, 00000000, 357.9960423101626;
250, 12.545183, 358.266, -176.401, 6814, -5248, 00000000, 357.9960423101626;
251, 12.592033, 358.266, -172.802, 6814, -5248, 00000000, 357.9960423101626;
252, 12.638971, 358.266, -169.200, 6814, -5248, 00000000, 357.9960423101626;
253, 12.685941, 358.266, -165.599, 6814, -5248, 00000000, 357.9960423101626;
254, 12.748442, 358.266, -161.970, 6814, -5248, 00000000, 357.9960423101626;
255, 12.795231, 358.266, -158.398, 6814, -5248, 00000000, 357.9960423101626;
256, 12.842129, 358.266, -154.798, 6814, -5248, 00000000, 357.9960423101626;
257, 12.888979, 358.266, -151.200, 6814, -5248, 00000000, 357.9960423101626;
258, 12.935841, 358.266, -147.598, 6814, -5248, 00000000, 357.9960423101626;
259, 12.998294, 358.266, -143.980, 6814, -5248, 00000000, 357.9960423101626;
260, 13.045146, 358.266, -140.397, 6814, -5248, 00000000, 357.9960423101626;
261, 13.092101, 358.266, -136.799, 6814, -5248, 00000000, 357.9960423101626;
