Data Counter, Data Time, Angle, Counter, Left Encoder Counts, Right Encoder Counts;
0, 0.036949, 0.000, 3.598, 4078, -4427, 00000000, 360.0;
1, 0.099382, 0.000, 7.305, 4078, -4427, 00000000, 360.0;
2, 0.146305, 0.000, 10.799, 4078, -4427, 00000000, 360.0;
3, 0.193114, 0.000, 14.400, 4078, -4427, 00000000, 360.0;
4, 0.239920, 0.000, 17.997, 4078, -4427, 00000000, 360.0;
5, 0.286948, 0.000, 21.604, 4078, -4427, 00000000, 360.0;
6, 0.349373, 0.000, 25.302, 4078, -4427, 00000000, 360.0;
7, 0.396367, 0.000, 28.803, 4078, -4427, 00000000, 360.0;
8, 0.443211, 0.000, 32.399, 4078, -4427, 00000000, 360.0;
9, 0.490030, 0.000, 35.998, 4078, -4427, 00000000, 360.0;
10, 0.536859, 0.000, 39.600, 4078, -4427, 00000000, 360.0;
11, 0.599322, 0.000, 43.301, 4078, -4427, 00000000, 360.0;
12, 0.646272, 0.000, 46.803, 4078, -4427, 00000000, 360.0;
13, 0.693006, 0.000, 50.402, 4078, -4427, 00000000, 360.0;
14, 0.740064, 0.000, 54.000, 4078, -4427, 00000000, 360.0;
15, 0.786895, 0.000, 57.601, 4078, -4427, 00000000, 360.0;
16, 0.849252, 0.000, 61.291, 4078, -4427, 00000000, 360.0;
17, 0.896281, 0.000, 64.800, 4078, -4427, 00000000, 360.0;
18, 0.943116, 0.000, 68.398, 4078, -4427, 00000000, 360.0;
19, 0.990014, 0.000, 71.997, 4078, -4427, 00000000, 360.0;
20, 1.036932, 0.000, 75.599, 4078, -4427, 00000000, 360.0;
21, 1.099316, 0.000, 79.299, 4078, -4427, 00000000, 360.0;
22, 1.146130, 0.000, 82.801, 4078, -4427, 00000000, 360.0;
23, 1.193048, 0.000, 86.398, 4078, -4427, 00000000, 360.0;
24, 1.240060, 0.000, 90.000, 4078, -4427, 00000000, 360.0;
25, 1.286967, 0.000, 93.597, 4078, -4427, 00000000, 360.0;
26, 1.349382, 0.000, 97.304, 4078, -4427, 00000000, 360.0;
27, 1.396311, 0.000, 100.804, 4078, -4427, 00000000, 360.0;
28, 1.443153, 0.000, 104.404, 4078, -4427, 00000000, 360.0;
29, 1.489993, 0.000, 107.999, 4078, -4427, 00000000, 307.0030860900879;
30, 1.536944, 0.108, 111.598, 4080, -4426, 00000000, 307.0030860900879;
31, 1.599430, 357.182, -244.689, 4068, -4411, 00000000, 307.0030860900879;
32, 1.646395, 354.255, -241.198, 4056, -4396, 00000000, 307.0030860900879;
33, 1.693206, 351.437, -237.603, 4045, -4381, 00000000, 307.0030860900879;
34, 1.740260, 348.944, -234.002, 4034, -4369, 00000000, 307.0030860900879;
35, 1.787090, 346.451, -230.402, 4023, -4357, 00000000, 307.0030860900879;
36, 1.849584, 343.091, -226.691, 4010, -4339, 00000000, 307.0030860900879;
37, 1.896396, 340.490, -223.197, 3998, -4327, 00000000, 307.0030860900879;
38, 1.943242, 337.888, -219.603, 3987, -4314, 00000000, 307.0030860900879;
39, 1.990102, 335.287, -216.000, 3976, -4301, 00000000, 307.0030860900879;
40, 2.036973, 332.686, -212.398, 3964, -4289, 00000000, 307.0030860900879;
41, 2.099416, 329.326, -208.720, 3949, -4273, 00000000, 307.0030860900879;
42, 2.146305, 327.375, -205.198, 3941, -4263, 00000000, 307.0030860900879;
43, 2.193300, 325.965, -201.602, 3936, -4255, 00000000, 307.0030860900879;
44, 2.240199, 324.665, -198.001, 3930, -4249, 00000000, 307.0030860900879;
45, 2.287017, 323.364, -194.402, 3924, -4243, 00000000, 307.0030860900879;
46, 2.349475, 321.413, -190.699, 3916, -4233, 00000000, 307.0030860900879;
47, 2.396384, 319.787, -187.199, 3909, -4225, 00000000, 307.0030860900879;
48, 2.443233, 318.378, -183.602, 3903, -4218, 00000000, 307.0030860900879;
49, 2.490059, 316.969, -179.996, 3897, -4211, 00000000, 307.0030860900879;
50, 2.536932, 315.343, -176.401, 3890, -4203, 00000000, 307.0030860900879;
51, 2.599489, 313.392, -172.698, 3882, -4193, 00000000, 307.0030860900879;
52, 2.646273, 311.766, -169.196, 3875, -4185, 00000000, 307.0030860900879;
53, 2.693122, 310.357, -165.596, 3869, -4178, 00000000, 307.0030860900879;
54, 2.740133, 309.165, -162.003, 3864, -4172, 00000000, 307.0030860900879;
55, 2.786854, 308.189, -158.396, 3860, -4167, 00000000, 307.0030860900879;
56, 2.849301, 306.889, -154.701, 3855, -4160, 00000000, 307.0030860900879;
57, 2.896269, 306.130, -151.198, 3853, -4155, 00000000, 307.0030860900879;
58, 2.943135, 305.805, -147.603, 3852, -4153, 00000000, 307.0030860900879;
59, 2.990025, 306.238, -144.000, 3854, -4155, 00000000, 307.0030860900879;
60, 3.037097, 307.431, -140.401, 3859, -4161, 00000000, 307.0030860900879;
61, 3.099446, 308.081, -136.694, 3862, -4164, 00000000, 307.0030860900879;
62, 3.146362, 307.864, -133.201, 3861, -4163, 00000000, 307.0030860900879;
63, 3.193155, 306.889, -129.599, 3857, -4158, 00000000, 307.0030860900879;
64, 3.240079, 306.022, -125.998, 3854, -4153, 00000000, 307.0030860900879;
65, 3.286960, 305.697, -122.397, 3852, -4152, 00000000, 307.0030860900879;
66, 3.349441, 306.455, -118.694, 3855, -4156, 00000000, 307.0030860900879;
67, 3.396267, 307.431, -115.199, 3860, -4160, 00000000, 307.0030860900879;
68, 3.443112, 307.973, -111.599, 3862, -4163, 00000000, 307.0030860900879;
69, 3.490175, 307.973, -107.997, 3862, -4163, 00000000, 307.0030860900879;
70, 3.536973, 307.106, -104.403, 3859, -4158, 00000000, 307.0030860900879;
71, 3.599298, 306.238, -100.703, 3856, -4153, 00000000, 307.0030860900879;
72, 3.646159, 306.455, -97.202, 3858, -4153, 00000000, 307.0030860900879;
73, 3.693238, 307.106, -93.601, 3860, -4157, 00000000, 307.0030860900879;
74, 3.740009, 307.756, -89.999, 3863, -4160, 00000000, 307.0030860900879;
75, 3.786861, 307.973, -86.404, 3864, -4161, 00000000, 307.0030860900879;
76, 3.849341, 306.889, -82.698, 3860, -4155, 00000000, 307.0030860900879;
77, 3.896295, 305.805, -79.203, 3856, -4149, 00000000, 307.0030860900879;
78, 3.943120, 305.588, -75.598, 3855, -4148, 00000000, 307.0030860900879;
79, 3.990130, 306.238, -71.998, 3857, -4152, 00000000, 307.0030860900879;
80, 4.036780, 307.106, -68.396, 3861, -4156, 00000000, 307.0030860900879;
81, 4.099437, 308.189, -64.691, 3866, -4161, 00000000, 307.0030860900879;
82, 4.146044, 308.081, -61.198, 3865, -4161, 00000000, 307.0030860900879;
83, 4.193174, 306.997, -57.597, 3861, -4155, 00000000, 307.0030860900879;
84, 4.240011, 305.913, -54.000, 3857, -4149, 00000000, 307.0030860900879;
85, 4.286853, 305.371, -50.397, 3855, -4146, 00000000, 307.0030860900879;
86, 4.349427, 306.238, -46.695, 3858, -4151, 00000000, 307.0030860900879;
87, 4.396237, 307.539, -43.201, 3864, -4157, 00000000, 307.0030860900879;
88, 4.443096, 308.406, -39.601, 3867, -4162, 00000000, 307.0030860900879;
89, 4.489957, 308.189, -36.000, 3867, -4160, 00000000, 307.0030860900879;
90, 4.536767, 307.322, -32.396, 3863, -4156, 00000000, 307.0030860900879;
91, 4.599339, 306.130, -28.708, 3859, -4149, 00000000, 307.0030860900879;
92, 4.646328, 305.805, -25.196, 3858, -4147, 00000000, 307.0030860900879;
93, 4.693113, 306.238, -21.602, 3860, -4149, 00000000, 307.0030860900879;
94, 4.739974, 307.322, -18.001, 3864, -4155, 00000000, 307.0030860900879;
95, 4.786821, 308.081, -14.398, 3867, -4159, 00000000, 307.0030860900879;
96, 4.849305, 308.298, -10.699, 3867, -4161, 00000000, 307.0030860900879;
97, 4.896156, 307.431, -7.203, 3864, -4156, 00000000, 307.0030860900879;
98, 4.943192, 306.455, -3.599, 3860, -4151, 00000000, 307.0030860900879;
99, 4.989837, 305.805, 0.004, 3858, -4147, 00000000, 307.0030860900879;
100, 5.036900, 305.913, 3.602, 3858, -4148, 00000000, 307.0030860900879;
101, 5.099415, 307.431, 7.301, 3864, -4156, 00000000, 307.0030860900879;
102, 5.146241, 308.298, 10.804, 3867, -4161, 00000000, 307.0030860900879;
103, 5.193166, 308.406, 14.397, 3867, -4162, 00000000, 307.0030860900879;
104, 5.239926, 307.539, 18.004, 3864, -4157, 00000000, 307.0030860900879;
105, 5.286927, 306.347, 21.599, 3859, -4151, 00000000, 307.0030860900879;
106, 5.349265, 305.913, 25.289, 3858, -4148, 00000000, 307.0030860900879;
107, 5.396285, 306.238, 28.799, 3859, -4150, 00000000, 307.0030860900879;
108, 5.443072, 307.214, 32.402, 3863, -4155, 00000000, 307.0030860900879;
109, 5.489905, 307.756, 36.000, 3865, -4158, 00000000, 307.0030860900879;
110, 5.537023, 307.864, 39.601, 3865, -4159, 00000000, 307.0030860900879;
111, 5.599304, 306.997, 43.271, 3862, -4154, 00000000, 307.0030860900879;
112, 5.646186, 306.130, 46.801, 3859, -4149, 00000000, 307.0030860900879;
113, 5.693019, 305.913, 50.400, 3858, -4148, 00000000, 307.0030860900879;
114, 5.740010, 306.238, -306.000, 3859, -4150, 00000000, 307.0030860900879;
115, 5.786831, 307.322, -302.401, 3863, -4156, 00000000, 307.0030860900879;
116, 5.849295, 308.298, -298.727, 3867, -4161, 00000000, 307.0030860900879;
117, 5.896242, 308.189, -295.200, 3866, -4161, 00000000, 307.0030860900879;
118, 5.943118, 307.431, -291.602, 3863, -4157, 00000000, 307.0030860900879;
119, 5.990033, 306.238, -288.000, 3859, -4150, 00000000, 307.0030860900879;
120, 6.036846, 305.913, -284.397, 3860, -4146, 00000000, 307.0030860900879;
121, 6.099495, 306.347, -280.698, 3862, -4148, 00000000, 307.0030860900879;
122, 6.146267, 307.539, -277.196, 3867, -4154, 00000000, 292.3942127771425;
123, 6.193171, 308.515, -273.600, 3871, -4159, 00000000, 292.3942127771425;
124, 6.240040, 307.864, -269.997, 3869, -4155, 00000000, 292.3942127771425;
125, 6.286855, 306.022, -266.397, 3863, -4144, 00000000, 292.3942127771425;
126, 6.349303, 303.529, -262.698, 3853, -4131, 00000000, 292.3942127771425;
127, 6.396208, 301.794, -259.197, 3846, -4122, 00000000, 292.3942127771425;
128, 6.443159, 300.277, -255.599, 3840, -4114, 00000000, 292.3942127771425;
129, 6.489958, 298.760, -251.997, 3834, -4106, 00000000, 292.3942127771425;
130, 6.536916, 297.350, -248.403, 3828, -4099, 00000000, 292.3942127771425;
131, 6.599377, 295.616, -244.702, 3821, -4090, 00000000, 292.3942127771425;
132, 6.646299, 294.532, -241.196, 3817, -4084, 00000000, 292.3942127771425;
133, 6.693142, 293.665, -237.601, 3813, -4080, 00000000, 292.3942127771425;
134, 6.740011, 292.690, -234.003, 3809, -4075, 00000000, 292.3942127771425;
135, 6.786801, 291.606, -230.400, 3804, -4070, 00000000, 292.3942127771425;
136, 6.849365, 291.172, -226.702, 3803, -4067, 00000000, 292.3942127771425;
137, 6.896386, 291.497, -223.204, 3804, -4069, 00000000, 292.3942127771425;
138, 6.943016, 292.365, -219.602, 3808, -4073, 00000000, 292.3942127771425;
139, 6.989902, 293.015, -216.000, 3811, -4076, 00000000, 292.3942127771425;
140, 7.036773, 293.015, -212.400, 3811, -4076, 00000000, 292.3942127771425;
141, 7.099392, 292.365, -208.704, 3808, -4073, 00000000, 292.3942127771425;
142, 7.146191, 291.497, -205.204, 3806, -4067, 00000000, 292.3942127771425;
143, 7.193119, 291.064, -201.604, 3804, -4065, 00000000, 292.3942127771425;
144, 7.239996, 291.497, -198.000, 3806, -4067, 00000000, 292.3942127771425;
145, 7.286866, 292.798, -194.399, 3810, -4075, 00000000, 292.3942127771425;
146, 7.349233, 293.665, -190.707, 3814, -4079, 00000000, 292.3942127771425;
147, 7.396325, 293.557, -187.201, 3814, -4078, 00000000, 292.3942127771425;
148, 7.442915, 292.473, -183.598, 3810, -4072, 00000000, 292.3942127771425;
149, 7.490083, 291.497, -180.002, 3806, -4067, 00000000, 292.3942127771425;
150, 7.536718, 291.172, -176.402, 3806, -4064, 00000000, 292.3942127771425;
151, 7.599288, 292.148, -172.700, 3810, -4069, 00000000, 292.3942127771425;
152, 7.646189, 293.340, -169.197, 3816, -4074, 00000000, 292.3942127771425;
153, 7.693106, 293.882, -165.601, 3818, -4077, 00000000, 292.3942127771425;
154, 7.740084, 293.448, -161.997, 3816, -4075, 00000000, 292.3942127771425;
155, 7.786879, 292.148, -158.403, 3811, -4068, 00000000, 292.3942127771425;
156, 7.849297, 290.739, -154.705, 3806, -4060, 00000000, 292.3942127771425;
157, 7.896121, 291.064, -151.198, 3808, -4061, 00000000, 292.3942127771425;
158, 7.943137, 292.039, -147.602, 3812, -4066, 00000000, 292.3942127771425;
159, 7.989939, 293.232, -144.002, 3817, -4072, 00000000, 292.3942127771425;
160, 8.036817, 293.448, -140.400, 3818, -4073, 00000000, 292.3942127771425;
161, 8.099358, 292.690, -136.706, 3815, -4069, 00000000, 292.3942127771425;
162, 8.146372, 291.823, -133.201, 3812, -4064, 00000000, 292.3942127771425;
163, 8.193136, 291.389, -129.599, 3811, -4061, 00000000, 292.3942127771425;
164, 8.239888, 291.606, -126.002, 3812, -4062, 00000000, 292.3942127771425;
165, 8.286865, 292.798, -122.397, 3817, -4068, 00000000, 292.3942127771425;
166, 8.349331, 294.207, -118.709, 3822, -4076, 00000000, 292.3942127771425;
167, 8.396221, 293.882, -115.202, 3821, -4074, 00000000, 292.3942127771425;
168, 8.443151, 292.906, -111.597, 3817, -4069, 00000000, 292.3942127771425;
169, 8.489921, 291.823, -107.999, 3813, -4063, 00000000, 292.3942127771425;
170, 8.536871, 291.172, -104.400, 3811, -4059, 00000000, 292.3942127771425;
171, 8.599316, 291.606, -100.702, 3813, -4061, 00000000, 292.3942127771425;
172, 8.646348, 292.906, -97.202, 3817, -4069, 00000000, 292.3942127771425;
173, 8.692980, 293.882, -93.598, 3821, -4074, 00000000, 292.3942127771425;
174, 8.739961, 293.774, -90.003, 3820, -4074, 00000000, 292.3942127771425;
175, 8.786908, 292.473, -86.397, 3815, -4067, 00000000, 292.3942127771425;
176, 8.849332, 291.172, -82.700, 3811, -4059, 00000000, 292.3942127771425;
177, 8.896329, 290.955, -79.199, 3810, -4058, 00000000, 292.3942127771425;
178, 8.943169, 291.714, -75.600, 3813, -4062, 00000000, 292.3942127771425;
179, 8.990054, 292.690, -71.998, 3817, -4067, 00000000, 292.3942127771425;
180, 9.036913, 293.665, -68.401, 3821, -4072, 00000000, 292.3942127771425;
181, 9.099384, 293.665, -64.706, 3821, -4072, 00000000, 292.3942127771425;
182, 9.146221, 292.581, -61.197, 3817, -4066, 00000000, 292.3942127771425;
183, 9.193080, 291.389, -57.602, 3813, -4059, 00000000, 292.3942127771425;
184, 9.239937, 290.739, -54.001, 3811, -4055, 00000000, 292.3942127771425;
185, 9.286787, 291.281, -50.401, 3813, -4058, 00000000, 292.3942127771425;
186, 9.349252, 292.798, -46.731, 3819, -4066, 00000000, 292.3942127771425;
187, 9.396135, 293.448, -43.201, 3822, -4069, 00000000, 292.3942127771425;
188, 9.443129, 293.232, -39.600, 3821, -4068, 00000000, 292.3942127771425;
189, 9.489977, 292.473, -35.999, 3818, -4064, 00000000, 292.3942127771425;
190, 9.536686, 291.714, -32.399, 3816, -4059, 00000000, 292.3942127771425;
191, 9.599319, 291.389, -28.729, 3815, -4057, 00000000, 292.3942127771425;
192, 9.646137, 292.365, -25.202, 3819, -4062, 00000000, 292.3942127771425;
193, 9.693006, 293.557, -21.602, 3823, -4069, 00000000, 292.3942127771425;
194, 9.739921, 293.990, -17.999, 3824, -4072, 00000000, 292.3942127771425;
195, 9.786966, 293.665, -14.400, 3823, -4070, 00000000, 292.3942127771425;
196, 9.849378, 292.039, -10.723, 3816, -4062, 00000000, 292.3942127771425;
197, 9.896248, 291.281, -7.201, 3814, -4057, 00000000, 292.3942127771425;
198, 9.943083, 291.172, -3.600, 3814, -4056, 00000000, 292.3942127771425;
199, 9.989911, 292.039, 0.001, 3817, -4061, 00000000, 292.3942127771425;
200, 10.036751, 293.123, 3.598, 3822, -4066, 00000000, 292.3942127771425;
201, 10.099271, 293.448, 7.266, 3823, -4068, 00000000, 292.3942127771425;
202, 10.146115, 292.906, 10.801, 3821, -4065, 00000000, 292.3942127771425;
203, 10.192982, 291.823, 14.400, 3817, -4059, 00000000, 292.3942127771425;
204, 10.239855, 291.172, 18.000, 3815, -4055, 00000000, 292.3942127771425;
205, 10.286849, 291.281, 21.602, 3816, -4055, 00000000, 292.3942127771425;
206, 10.349206, 292.690, 25.261, 3822, -4062, 00000000, 292.3942127771425;
207, 10.395985, 293.557, 28.802, 3825, -4067, 00000000, 292.3942127771425;
208, 10.442903, 293.665, 32.398, 3825, -4068, 00000000, 292.3942127771425;
209, 10.489687, 293.015, 35.999, 3823, -4064, 00000000, 292.3942127771425;
210, 10.536574, 291.823, 39.601, 3818, -4058, 00000000, 292.3942127771425;
211, 10.599225, 291.064, 43.268, 3815, -4054, 00000000, 292.3942127771425;
212, 10.646301, 291.389, 46.799, 3816, -4056, 00000000, 292.3942127771425;
213, 10.692921, 292.473, 50.398, 3820, -4062, 00000000, 292.3942127771425;
214, 10.740031, 293.448, 54.000, 3824, -4067, 00000000, 292.3942127771425;
215, 10.786617, 293.448, 57.600, 3824, -4067, 00000000, 292.3942127771425;
216, 10.849097, 292.256, 61.258, 3819, -4061, 00000000, 292.3942127771425;
217, 10.896197, 291.281, 64.800, 3815, -4056, 00000000, 292.3942127771425;
218, 10.942773, 290.955, 68.399, 3814, -4054, 00000000, 292.3942127771425;
219, 10.989886, 291.497, -288.001, 3815, -4058, 00000000, 292.3942127771425;
220, 11.036769, 292.473, -284.399, 3819, -4063, 00000000, 289.0614140934366;
221, 11.099189, 293.232, -280.736, 3822, -4067, 00000000, 289.0614140934366;
222, 11.146066, 293.015, -277.200, 3821, -4066, 00000000, 289.0614140934366;
223, 11.192916, 292.039, -273.601, 3817, -4061, 00000000, 289.0614140934366;
224, 11.239768, 290.955, -270.003, 3812, -4056, 00000000, 289.0614140934366;
225, 11.286621, 289.980, -266.401, 3808, -4051, 00000000, 289.0614140934366;
226, 11.349288, 288.896, -262.713, 3804, -4045, 00000000, 289.0614140934366;
227, 11.396105, 288.354, -259.199, 3801, -4043, 00000000, 289.0614140934366;
228, 11.442981, 288.462, -255.600, 3802, -4043, 00000000, 289.0614140934366;
229, 11.489876, 289.221, -252.003, 3805, -4047, 00000000, 289.0614140934366;
230, 11.536808, 289.763, -248.404, 3806, -4051, 00000000, 289.0614140934366;
231, 11.599244, 289.763, -244.716, 3807, -4050, 00000000, 289.0614140934366;
232, 11.646098, 289.004, -241.200, 3804, -4046, 00000000, 289.0614140934366;
233, 11.692935, 288.246, -237.603, 3801, -4042, 00000000, 289.0614140934366;
234, 11.739745, 288.137, -233.999, 3802, -4040, 00000000, 289.0614140934366;
235, 11.786845, 288.788, -230.398, 3805, -4043, 00000000, 289.0614140934366;
236, 11.849279, 290.197, -226.705, 3810, -4051, 00000000, 289.0614140934366;
237, 11.896095, 290.413, -223.200, 3812, -4051, 00000000, 289.0614140934366;
238, 11.943051, 289.872, -219.600, 3810, -4048, 00000000, 289.0614140934366;
239, 11.989879, 288.896, -216.002, 3806, -4043, 00000000, 289.0614140934366;
240, 12.036649, 288.029, -212.404, 3803, -4038, 00000000, 289.0614140934366;
241, 12.099213, 288.137, -208.710, 3805, -4037, 00000000, 289.0614140934366;
242, 12.145967, 289.004, -205.198, 3808, -4042, 00000000, 289.0614140934366;
243, 12.192909, 290.088, -201.600, 3812, -4048, 00000000, 289.0614140934366;
244, 12.239946, 290.305, -197.997, 3814, -4048, 00000000, 289.0614140934366;
245, 12.286943, 289.763, -194.398, 3812, -4045, 00000000, 289.0614140934366;
246, 12.349463, 288.354, -190.700, 3806, -4038, 00000000, 289.0614140934366;
247, 12.396248, 287.704, -187.200, 3804, -4034, 00000000, 289.0614140934366;
248, 12.443069, 288.029, -183.602, 3805, -4036, 00000000, 289.0614140934366;
249, 12.489962, 289.004, -180.004, 3809, -4041, 00000000, 289.0614140934366;
250, 12.536850, 289.980, -176.397, 3813, -4046, 00000000, 289.0614140934366;
251, 12.599085, 290.522, -172.713, 3815, -4049, 00000000, 289.0614140934366;
252, 12.646091, 289.655, -169.204, 3812, -4044, 00000000, 289.0614140934366;
253, 12.692957, 288.462, -165.599, 3807, -4038, 00000000, 289.0614140934366;
254, 12.739852, 287.812, -161.997, 3805, -4034, 00000000, 289.0614140934366;
255, 12.786930, 287.921, -158.403, 3806, -4034, 00000000, 289.0614140934366;
256, 12.849373, 289.330, -154.706, 3811, -4042, 00000000, 289.0614140934366;
257, 12.896199, 290.305, -151.203, 3815, -4047, 00000000, 289.0614140934366;
258, 12.943125, 290.305, -147.602, 3815, -4047, 00000000, 289.0614140934366;
259, 12.989894, 289.438, -144.000, 3812, -4042, 00000000, 289.0614140934366;
260, 13.036842, 288.571, -140.401, 3809, -4037, 00000000, 289.0614140934366;
261, 13.099183, 287.921, -136.718, 3806, -4034, 00000000, 289.0614140934366;
262, 13.146328, 288.246, -133.202, 3807, -4036, 00000000, 289.0614140934366;
263, 13.192921, 289.438, -129.604, 3812, -4042, 00000000, 289.0614140934366;
264, 13.239834, 290.197, -126.003, 3815, -4046, 00000000, 289.0614140934366;
265, 13.286903, 290.088, -122.403, 3815, -4045, 00000000, 289.0614140934366;
266, 13.349318, 288.788, -118.710, 3810, -4038, 00000000, 289.0614140934366;
267, 13.396144, 288.137, -115.199, 3808, -4034, 00000000, 289.0614140934366;
268, 13.443058, 288.029, -111.600, 3808, -4033, 00000000, 289.0614140934366;
269, 13.489914, 288.788, -108.002, 3811, -4037, 00000000, 289.0614140934366;
