Data Counter, Data Time, Angle, Counter, Left Encoder Counts, Right Encoder Counts;
0, 0.029591, 0.000, 1.136, 26568, -20766, 00000000, 360.0;
1, 0.060916, 0.000, 2.270, 26568, -20766, 00000000, 360.0;
2, 0.092171, 0.000, 3.388, 26568, -20766, 00000000, 360.0;
3, 0.123402, 0.000, 4.518, 26568, -20766, 00000000, 360.0;
4, 0.154654, 0.000, 5.637, 26568, -20766, 00000000, 360.0;
5, 0.185691, 0.000, 6.758, 26568, -20766, 00000000, 360.0;
6, 0.217109, 0.000, 7.885, 26568, -20766, 00000000, 360.0;
7, 0.248283, 0.000, 9.011, 26568, -20766, 00000000, 360.0;
8, 0.279392, 0.000, 10.131, 26568, -20766, 00000000, 360.0;
9, 0.310751, 0.000, 11.259, 26568, -20766, 00000000, 360.0;
10, 0.341842, 0.000, 12.380, 26568, -20766, 00000000, 360.0;
11, 0.373296, 0.000, 13.506, 26568, -20766, 00000000, 360.0;
12, 0.404503, 0.000, 14.631, 26568, -20766, 00000000, 360.0;
13, 0.435554, 0.000, 15.752, 26568, -20766, 00000000, 360.0;
14, 0.466975, 0.000, 16.880, 26568, -20766, 00000000, 360.0;
15, 0.498236, 0.000, 18.004, 26568, -20766, 00000000, 360.0;
16, 0.529386, 0.000, 19.128, 26568, -20766, 00000000, 360.0;
17, 0.560697, 0.000, 20.252, 26568, -20766, 00000000, 360.0;
18, 0.591688, 0.000, 21.375, 26568, -20766, 00000000, 360.0;
19, 0.623050, 0.000, 22.503, 26568, -20766, 00000000, 360.0;
20, 0.654357, 0.000, 23.626, 26568, -20766, 00000000, 360.0;
21, 0.685379, 0.000, 24.752, 26568, -20766, 00000000, 360.0;
22, 0.716813, 0.000, 25.874, 26568, -20766, 00000000, 360.0;
23, 0.747835, 0.000, 27.001, 26568, -20766, 00000000, 360.0;
24, 0.779314, 0.000, 28.124, 26568, -20766, 00000000, 360.0;
25, 0.810503, 0.000, 29.252, 26568, -20766, 00000000, 360.0;
26, 0.841583, 0.000, 30.374, 26568, -20766, 00000000, 360.0;
27, 0.872919, 0.000, 31.501, 26568, -20766, 00000000, 360.0;
28, 0.904249, 0.000, 32.625, 26568, -20766, 00000000, 360.0;
29, 0.935451, 0.000, 33.751, 26568, -20766, 00000000, 360.0;
30, 0.966689, 0.000, 34.875, 26568, -20766, 00000000, 360.0;
31, 0.997712, 0.000, 36.000, 26568, -20766, 00000000, 360.0;
32, 1.029128, 0.000, 37.124, 26568, -20766, 00000000, 360.0;
33, 1.060405, 0.000, 38.250, 26568, -20766, 00000000, 360.0;
34, 1.091373, 0.000, 39.377, 26568, -20766, 00000000, 360.0;
35, 1.122870, 0.000, 40.500, 26568, -20766, 00000000, 360.0;
36, 1.153942, 0.000, 41.624, 26568, -20766, 00000000, 360.0;
37, 1.185327, 0.000, 42.750, 26568, -20766, 00000000, 330.4020655632019;
38, 1.216562, 0.000, 43.876, 26568, -20766, 00000000, 330.4020655632019;
39, 1.247561, 0.000, 45.001, 26568, -20766, 00000000, 330.4020655632019;
40, 1.279015, 0.000, 46.126, 26568, -20766, 00000000, 330.4020655632019;
41, 1.310284, 359.783, -312.748, 26567, -20765, 00000000, 330.4020655632019;
42, 1.341449, 359.675, -311.624, 26567, -20764, 00000000, 330.4020655632019;
43, 1.372737, 359.458, -310.501, 26566, -20763, 00000000, 330.4020655632019;
44, 1.403752, 358.916, -309.374, 26563, -20761, 00000000, 330.4020655632019;
45, 1.435176, 358.374, -308.251, 26561, -20758, 00000000, 330.4020655632019;
46, 1.466415, 357.832, -307.123, 26558, -20756, 00000000, 330.4020655632019;
47, 1.497624, 357.399, -306.000, 26556, -20754, 00000000, 330.4020655632019;
48, 1.528880, 356.965, -304.873, 26554, -20752, 00000000, 330.4020655632019;
49, 1.559936, 356.640, -303.751, 26553, -20750, 00000000, 330.4020655632019;
50, 1.591325, 356.098, -302.625, 26550, -20748, 00000000, 330.4020655632019;
51, 1.622520, 355.664, -301.501, 26548, -20746, 00000000, 330.4020655632019;
52, 1.653646, 355.339, -300.374, 26547, -20744, 00000000, 330.4020655632019;
53, 1.685069, 354.797, -299.248, 26544, -20742, 00000000, 330.4020655632019;
54, 1.716267, 354.364, -298.124, 26542, -20740, 00000000, 330.4020655632019;
55, 1.747482, 354.039, -297.000, 26541, -20738, 00000000, 330.4020655632019;
56, 1.778740, 353.497, -295.875, 26538, -20736, 00000000, 330.4020655632019;
57, 1.809829, 353.063, -294.749, 26536, -20734, 00000000, 330.4020655632019;
58, 1.841138, 352.629, -293.623, 26534, -20732, 00000000, 330.4020655632019;
59, 1.872473, 352.088, -292.498, 26532, -20729, 00000000, 330.4020655632019;
60, 1.903520, 351.654, -291.374, 26529, -20728, 00000000, 330.4020655632019;
61, 1.934852, 351.112, -290.248, 26527, -20725, 00000000, 330.4020655632019;
62, 1.966067, 350.895, -289.126, 26526, -20724, 00000000, 308.3999736441325;
63, 1.997320, 350.245, -287.999, 26523, -20721, 00000000, 308.3999736441325;
64, 2.028587, 350.028, -286.875, 26522, -20720, 00000000, 308.3999736441325;
65, 2.059813, 349.595, -285.750, 26520, -20718, 00000000, 308.3999736441325;
66, 2.090988, 349.053, -284.624, 26517, -20716, 00000000, 308.3999736441325;
67, 2.122319, 348.619, -283.500, 26515, -20714, 00000000, 308.3999736441325;
68, 2.153521, 348.294, -282.375, 26514, -20712, 00000000, 308.3999736441325;
69, 2.184749, 347.752, -281.251, 26511, -20710, 00000000, 308.3999736441325;
70, 2.215982, 347.427, -280.125, 26510, -20708, 00000000, 308.3999736441325;
71, 2.247150, 346.885, -278.999, 26507, -20706, 00000000, 308.3999736441325;
72, 2.278443, 346.560, -277.873, 26506, -20704, 00000000, 308.3999736441325;
73, 2.309480, 346.018, -276.749, 26503, -20702, 00000000, 308.3999736441325;
74, 2.340944, 345.692, -275.625, 26502, -20700, 00000000, 308.3999736441325;
75, 2.372091, 345.259, -274.499, 26500, -20698, 00000000, 308.3999736441325;
76, 2.403378, 344.825, -273.376, 26498, -20696, 00000000, 308.3999736441325;
77, 2.434544, 344.392, -272.248, 26496, -20694, 00000000, 308.3999736441325;
78, 2.465802, 343.958, -271.126, 26494, -20692, 00000000, 308.3999736441325;
79, 2.497048, 343.416, -269.999, 26491, -20690, 00000000, 308.3999736441325;
80, 2.528301, 343.091, -268.874, 26490, -20688, 00000000, 308.3999736441325;
81, 2.559510, 342.549, -267.751, 26487, -20686, 00000000, 308.3999736441325;
82, 2.590801, 342.116, -266.626, 26485, -20684, 00000000, 308.3999736441325;
83, 2.621913, 341.790, -265.500, 26484, -20682, 00000000, 308.3999736441325;
84, 2.653200, 341.140, -264.373, 26481, -20679, 00000000, 308.3999736441325;
85, 2.684513, 340.815, -263.248, 26479, -20678, 00000000, 308.3999736441325;
86, 2.715674, 340.490, -262.124, 26478, -20676, 00000000, 308.3999736441325;
87, 2.746947, 339.948, -261.001, 26475, -20674, 00000000, 308.3999736441325;
88, 2.778154, 339.623, -259.873, 26474, -20672, 00000000, 284.44810925827875;
89, 2.809362, 339.081, -258.748, 26471, -20670, 00000000, 284.44810925827875;
90, 2.840590, 338.756, -257.624, 26470, -20668, 00000000, 284.44810925827875;
91, 2.871655, 338.105, -256.502, 26467, -20665, 00000000, 284.44810925827875;
92, 2.903021, 337.888, -255.375, 26466, -20664, 00000000, 284.44810925827875;
93, 2.934292, 337.238, -254.251, 26463, -20661, 00000000, 284.44810925827875;
94, 2.965562, 337.021, -253.126, 26462, -20660, 00000000, 284.44810925827875;
95, 2.996799, 336.371, -251.998, 26459, -20657, 00000000, 284.44810925827875;
96, 3.027927, 336.046, -250.873, 26458, -20655, 00000000, 284.44810925827875;
97, 3.059230, 335.504, -249.749, 26455, -20653, 00000000, 284.44810925827875;
98, 3.090412, 335.070, -248.626, 26453, -20651, 00000000, 284.44810925827875;
99, 3.121650, 334.745, -247.501, 26451, -20650, 00000000, 284.44810925827875;
100, 3.152983, 334.420, -246.376, 26450, -20648, 00000000, 284.44810925827875;
101, 3.184216, 333.986, -245.248, 26448, -20646, 00000000, 284.44810925827875;
102, 3.215377, 333.553, -244.124, 26446, -20644, 00000000, 284.44810925827875;
103, 3.246652, 333.119, -242.999, 26444, -20642, 00000000, 284.44810925827875;
104, 3.277685, 332.686, -241.876, 26442, -20640, 00000000, 284.44810925827875;
105, 3.309035, 332.144, -240.749, 26439, -20638, 00000000, 284.44810925827875;
106, 3.340360, 331.819, -239.626, 26438, -20636, 00000000, 284.44810925827875;
107, 3.371476, 331.277, -238.499, 26435, -20634, 00000000, 284.44810925827875;
108, 3.402739, 330.951, -237.373, 26434, -20632, 00000000, 284.44810925827875;
109, 3.433856, 330.409, -236.251, 26431, -20630, 00000000, 284.44810925827875;
110, 3.465223, 329.976, -235.125, 26429, -20628, 00000000, 284.44810925827875;
111, 3.496510, 329.542, -233.998, 26427, -20626, 00000000, 284.44810925827875;
112, 3.527567, 329.217, -232.876, 26426, -20624, 00000000, 284.44810925827875;
113, 3.558955, 328.675, -231.748, 26423, -20622, 00000000, 284.44810925827875;
114, 3.590192, 328.350, -230.623, 26422, -20620, 00000000, 284.44810925827875;
115, 3.621428, 328.025, -229.499, 26420, -20619, 00000000, 284.44810925827875;
116, 3.652622, 327.483, -228.375, 26418, -20616, 00000000, 284.44810925827875;
117, 3.683857, 327.158, -227.251, 26416, -20615, 00000000, 284.44810925827875;
118, 3.715159, 326.616, -226.126, 26414, -20612, 00000000, 284.44810925827875;
119, 3.746336, 326.182, -224.998, 26412, -20610, 00000000, 284.44810925827875;
120, 3.777577, 325.749, -223.875, 26410, -20608, 00000000, 284.44810925827875;
121, 3.808789, 325.207, -222.752, 26407, -20606, 00000000, 284.44810925827875;
122, 3.839859, 324.773, -221.625, 26405, -20604, 00000000, 284.44810925827875;
123, 3.871253, 324.340, -220.501, 26403, -20602, 00000000, 284.44810925827875;
124, 3.902449, 324.014, -219.376, 26402, -20600, 00000000, 284.44810925827875;
125, 3.933600, 323.473, -218.249, 26399, -20598, 00000000, 284.44810925827875;
126, 3.965003, 323.147, -217.124, 26398, -20596, 00000000, 284.44810925827875;
127, 3.996215, 322.605, -215.999, 26395, -20594, 00000000, 284.44810925827875;
128, 4.027469, 322.280, -214.874, 26394, -20592, 00000000, 284.44810925827875;
129, 4.058678, 321.630, -213.749, 26391, -20589, 00000000, 284.44810925827875;
130, 4.089808, 321.305, -212.626, 26390, -20587, 00000000, 284.44810925827875;
131, 4.121145, 320.871, -211.502, 26387, -20586, 00000000, 284.44810925827875;
132, 4.152316, 320.438, -210.373, 26386, -20583, 00000000, 284.44810925827875;
133, 4.183418, 320.004, -209.249, 26383, -20582, 00000000, 284.44810925827875;
134, 4.214836, 319.462, -208.126, 26381, -20579, 00000000, 284.44810925827875;
135, 4.245889, 319.029, -206.999, 26379, -20577, 00000000, 284.44810925827875;
136, 4.277257, 318.812, -205.874, 26378, -20576, 00000000, 284.44810925827875;
137, 4.308523, 318.161, -204.750, 26375, -20573, 00000000, 284.44810925827875;
138, 4.339687, 317.945, -203.625, 26374, -20572, 00000000, 284.44810925827875;
139, 4.370939, 317.403, -202.499, 26371, -20570, 00000000, 284.44810925827875;
140, 4.402271, 317.077, -201.375, 26370, -20568, 00000000, 284.44810925827875;
141, 4.433404, 316.536, -200.250, 26367, -20566, 00000000, 284.44810925827875;
142, 4.464629, 316.210, -199.126, 26366, -20564, 00000000, 284.44810925827875;
143, 4.495700, 315.668, -197.998, 26363, -20562, 00000000, 284.44810925827875;
144, 4.527171, 315.343, -196.876, 26362, -20560, 00000000, 284.44810925827875;
145, 4.558360, 314.801, -195.748, 26359, -20558, 00000000, 284.44810925827875;
146, 4.589589, 314.476, -194.626, 26358, -20556, 00000000, 284.44810925827875;
147, 4.620816, 313.934, -193.500, 26355, -20554, 00000000, 284.44810925827875;
148, 4.652104, 313.609, -192.376, 26354, -20552, 00000000, 284.44810925827875;
149, 4.683324, 313.067, -191.252, 26351, -20550, 00000000, 284.44810925827875;
150, 4.714479, 312.525, -190.123, 26349, -20547, 00000000, 284.44810925827875;
151, 4.745694, 312.200, -189.000, 26347, -20546, 00000000, 284.44810925827875;
152, 4.777037, 311.875, -187.873, 26346, -20544, 00000000, 284.44810925827875;
153, 4.808231, 311.441, -186.749, 26344, -20542, 00000000, 284.44810925827875;
154, 4.839412, 310.899, -185.626, 26341, -20540, 00000000, 284.44810925827875;
155, 4.870649, 310.574, -184.499, 26340, -20538, 00000000, 284.44810925827875;
156, 4.901732, 310.141, -183.374, 26338, -20536, 00000000, 284.44810925827875;
157, 4.933102, 309.599, -182.249, 26335, -20534, 00000000, 284.44810925827875;
158, 4.964415, 309.273, -181.125, 26333, -20533, 00000000, 284.44810925827875;
159, 4.995468, 308.731, -179.998, 26331, -20530, 00000000, 284.44810925827875;
160, 5.026849, 308.298, -178.875, 26329, -20528, 00000000, 284.44810925827875;
161, 5.058046, 307.973, -177.750, 26328, -20526, 00000000, 284.44810925827875;
162, 5.089313, 307.431, -176.626, 26325, -20524, 00000000, 284.44810925827875;
163, 5.120490, 307.106, -175.499, 26324, -20522, 00000000, 284.44810925827875;
164, 5.151556, 306.672, -174.373, 26322, -20520, 00000000, 284.44810925827875;
165, 5.182952, 306.238, -173.250, 26320, -20518, 00000000, 284.44810925827875;
166, 5.214178, 305.805, -172.126, 26318, -20516, 00000000, 284.44810925827875;
167, 5.245471, 305.263, -170.998, 26315, -20514, 00000000, 284.44810925827875;
168, 5.276713, 304.938, -169.876, 26314, -20512, 00000000, 284.44810925827875;
169, 5.307848, 304.504, -168.751, 26312, -20510, 00000000, 284.44810925827875;
170, 5.339200, 304.071, -167.624, 26310, -20508, 00000000, 284.44810925827875;
171, 5.370357, 303.529, -166.500, 26307, -20506, 00000000, 284.44810925827875;
172, 5.401597, 303.204, -165.373, 26306, -20504, 00000000, 284.44810925827875;
173, 5.432898, 302.662, -164.252, 26303, -20502, 00000000, 284.44810925827875;
174, 5.463889, 302.120, -163.125, 26301, -20499, 00000000, 284.44810925827875;
175, 5.495286, 301.794, -161.999, 26300, -20497, 00000000, 284.44810925827875;
176, 5.526542, 301.361, -160.873, 26298, -20495, 00000000, 284.44810925827875;
177, 5.557551, 300.819, -159.751, 26295, -20493, 00000000, 284.44810925827875;
178, 5.589025, 300.385, -158.625, 26293, -20491, 00000000, 284.44810925827875;
179, 5.620265, 300.060, -157.501, 26292, -20489, 00000000, 284.44810925827875;
180, 5.651467, 299.627, -156.373, 26290, -20487, 00000000, 284.44810925827875;
181, 5.682678, 299.193, -155.252, 26287, -20486, 00000000, 284.44810925827875;
182, 5.713939, 298.651, -154.123, 26285, -20483, 00000000, 284.44810925827875;
183, 5.745168, 298.326, -153.001, 26284, -20481, 00000000, 284.44810925827875;
184, 5.776373, 297.892, -151.874, 26282, -20479, 00000000, 284.44810925827875;
185, 5.807481, 297.350, -150.748, 26279, -20477, 00000000, 284.44810925827875;
186, 5.838864, 297.025, -149.626, 26278, -20475, 00000000, 284.44810925827875;
187, 5.869862, 296.483, -148.500, 26275, -20473, 00000000, 284.44810925827875;
188, 5.901392, 296.267, -147.375, 26274, -20472, 00000000, 284.44810925827875;
189, 5.932575, 295.725, -146.250, 26272, -20469, 00000000, 284.44810925827875;
190, 5.963729, 295.399, -145.123, 26270, -20468, 00000000, 284.44810925827875;
191, 5.995039, 294.966, -144.001, 26268, -20466, 00000000, 284.44810925827875;
192, 6.026294, 294.532, -142.876, 26266, -20464, 00000000, 284.44810925827875;
193, 6.057519, 294.099, -141.751, 26264, -20462, 00000000, 284.44810925827875;
194, 6.088729, 293.557, -140.623, 26261, -20460, 00000000, 284.44810925827875;
195, 6.119730, 293.232, -139.500, 26260, -20458, 00000000, 284.44810925827875;
196, 6.151214, 292.798, -138.376, 26258, -20456, 00000000, 284.44810925827875;
197, 6.182440, 292.365, -137.251, 26256, -20454, 00000000, 284.44810925827875;
198, 6.213603, 292.039, -136.126, 26254, -20453, 00000000, 284.44810925827875;
199, 6.244921, 291.497, -134.999, 26251, -20451, 00000000, 284.44810925827875;
200, 6.276025, 291.064, -133.875, 26250, -20448, 00000000, 284.44810925827875;
201, 6.307325, 290.630, -132.749, 26248, -20446, 00000000, 284.44810925827875;
202, 6.338564, 290.305, -131.625, 26246, -20445, 00000000, 284.44810925827875;
203, 6.369785, 289.763, -130.500, 26244, -20442, 00000000, 284.44810925827875;
204, 6.401106, 289.438, -129.373, 26242, -20441, 00000000, 284.44810925827875;
205, 6.432290, 288.896, -128.249, 26239, -20439, 00000000, 284.44810925827875;
206, 6.463530, 288.462, -127.124, 26238, -20436, 00000000, 284.44810925827875;
207, 6.494779, 288.029, -126.000, 26235, -20435, 00000000, 284.44810925827875;
208, 6.525760, 287.595, -124.876, 26234, -20432, 00000000, 284.44810925827875;
209, 6.557180, 287.162, -123.750, 26231, -20431, 00000000, 284.44810925827875;
210, 6.588417, 286.837, -122.625, 26230, -20429, 00000000, 284.44810925827875;
211, 6.619496, 286.186, -121.500, 26227, -20426, 00000000, 284.44810925827875;
212, 6.650869, 285.969, -120.374, 26226, -20425, 00000000, 284.44810925827875;
213, 6.681940, 285.319, -119.251, 26223, -20422, 00000000, 284.44810925827875;
214, 6.713374, 284.994, -118.126, 26221, -20421, 00000000, 284.44810925827875;
215, 6.744640, 284.560, -116.999, 26219, -20419, 00000000, 284.44810925827875;
216, 6.775618, 284.235, -115.874, 26218, -20417, 00000000, 284.44810925827875;
217, 6.807042, 284.127, -114.751, 26218, -20416, 00000000, 284.44810925827875;
218, 6.838282, 284.018, -113.624, 26217, -20416, 00000000, 284.44810925827875;
219, 6.869331, 284.018, -112.501, 26217, -20416, 00000000, 284.44810925827875;
220, 6.900722, 284.018, -111.373, 26217, -20416, 00000000, 284.44810925827875;
221, 6.931749, 284.018, -110.248, 26217, -20416, 00000000, 284.44810925827875;
222, 6.963137, 284.018, -109.124, 26217, -20416, 00000000, 284.44810925827875;
223, 6.994461, 284.018, -108.000, 26217, -20416, 00000000, 284.44810925827875;
224, 7.025471, 284.018, -106.875, 26217, -20416, 00000000, 284.44810925827875;
225, 7.056836, 284.018, -105.749, 26217, -20416, 00000000, 284.44810925827875;
226, 7.087933, 284.018, -104.624, 26217, -20416, 00000000, 284.44810925827875;
227, 7.119298, 284.018, -103.498, 26217, -20416, 00000000, 284.44810925827875;
228, 7.150618, 284.018, -102.375, 26217, -20416, 00000000, 284.44810925827875;
229, 7.181666, 284.018, -101.251, 26217, -20416, 00000000, 284.44810925827875;
230, 7.213078, 284.018, -100.123, 26217, -20416, 00000000, 284.44810925827875;
231, 7.244274, 284.018, -99.002, 26217, -20416, 00000000, 284.44810925827875;
232, 7.275310, 284.018, -97.875, 26217, -20416, 00000000, 284.44810925827875;
233, 7.306723, 284.018, -96.749, 26217, -20416, 00000000, 284.44810925827875;
234, 7.337841, 284.018, -95.626, 26217, -20416, 00000000, 284.44810925827875;
235, 7.369218, 284.018, -94.501, 26217, -20416, 00000000, 284.44810925827875;
236, 7.400400, 284.018, -93.375, 26217, -20416, 00000000, 284.44810925827875;
237, 7.431535, 284.018, -92.250, 26217, -20416, 00000000, 284.44810925827875;
238, 7.462889, 284.018, -91.126, 26217, -20416, 00000000, 284.44810925827875;
239, 7.493967, 284.018, -89.998, 26217, -20416, 00000000, 284.44810925827875;
240, 7.525375, 284.018, -88.877, 26217, -20416, 00000000, 284.44810925827875;
241, 7.556583, 284.018, -87.749, 26217, -20416, 00000000, 284.44810925827875;
242, 7.587620, 284.018, -86.623, 26217, -20416, 00000000, 284.44810925827875;
243, 7.619062, 284.018, -85.500, 26217, -20416, 00000000, 284.44810925827875;
244, 7.650328, 284.018, -84.373, 26217, -20416, 00000000, 284.44810925827875;
245, 7.681342, 284.018, -83.248, 26217, -20416, 00000000, 284.44810925827875;
246, 7.712712, 284.018, -82.124, 26217, -20416, 00000000, 284.44810925827875;
247, 7.743785, 284.018, -80.999, 26217, -20416, 00000000, 284.44810925827875;
248, 7.775239, 284.018, -79.874, 26217, -20416, 00000000, 284.44810925827875;
249, 7.806390, 284.018, -78.749, 26217, -20416, 00000000, 284.44810925827875;
250, 7.837511, 284.018, -77.624, 26217, -20416, 00000000, 284.44810925827875;
251, 7.868893, 284.018, -76.500, 26217, -20416, 00000000, 284.44810925827875;
252, 7.900162, 284.018, -75.374, 26217, -20416, 00000000, 284.44810925827875;
253, 7.931313, 284.018, -74.248, 26217, -20416, 00000000, 284.44810925827875;
254, 7.962652, 284.018, -73.125, 26217, -20416, 00000000, 284.44810925827875;
255, 7.993709, 284.018, -71.999, 26217, -20416, 00000000, 284.44810925827875;
256, 8.025032, 284.018, -70.875, 26217, -20416, 00000000, 284.44810925827875;
257, 8.056324, 284.018, -69.749, 26217, -20416, 00000000, 284.44810925827875;
258, 8.087324, 284.018, -68.626, 26217, -20416, 00000000, 284.44810925827875;
259, 8.118713, 284.018, -67.498, 26217, -20416, 00000000, 284.44810925827875;
260, 8.149802, 284.018, -66.375, 26217, -20416, 00000000, 284.44810925827875;
261, 8.181274, 284.018, -65.248, 26217, -20416, 00000000, 284.44810925827875;
