Data Counter, Data Time, Angle, Counter, Left Encoder Counts, Right Encoder Counts, Bumper Byte, Desired Heading
0 0.031272 90.000000 1.171374 3763 -3641 00000000 90.000000
1 0.062516 90.000000 2.296829 3763 -3641 00000000 90.000000
2 0.078157 90.000000 3.374236 3763 -3641 00000000 90.000000
3 0.109415 90.000000 4.500352 3763 -3641 00000000 90.000000
4 0.140670 90.000000 5.624579 3763 -3641 00000000 90.000000
5 0.187512 90.000000 6.795834 3763 -3641 00000000 90.000000
6 0.203193 90.000000 7.874597 3763 -3641 00000000 90.000000
7 0.234402 90.000000 9.000575 3763 -3641 00000000 90.000000
8 0.265643 90.000000 10.125532 3763 -3641 00000000 90.000000
9 0.296914 90.000000 11.250197 3763 -3641 00000000 90.000000
10 0.328201 90.000000 12.374914 3763 -3641 00000000 90.000000
11 0.359446 90.000000 13.499828 3763 -3641 00000000 90.000000
12 0.390681 90.000000 14.624648 3763 -3641 00000000 90.000000
13 0.421966 90.000000 15.750498 3763 -3641 00000000 90.000000
14 0.453215 90.000000 16.875884 3763 -3641 00000000 90.000000
15 0.484451 90.000000 18.000687 3763 -3641 00000000 90.000000
16 0.515671 90.000000 19.126159 3763 -3641 00000000 90.000000
17 0.546940 90.000000 20.249700 3763 -3641 00000000 90.000000
18 0.578193 90.000000 21.374820 3763 -3641 00000000 90.000000
19 0.609479 90.000000 22.500266 3763 -3641 00000000 90.000000
20 0.640735 90.000000 23.625360 3763 -3641 00000000 90.000000
21 0.672000 90.000000 24.750206 3763 -3641 00000000 90.000000
22 0.703212 90.000000 25.874270 3763 -3641 00000000 90.000000
23 0.734485 90.000000 27.000618 3763 -3641 00000000 90.000000
24 0.765700 90.000000 28.124399 3763 -3641 00000000 90.000000
25 0.796985 90.000000 29.250429 3763 -3641 00000000 90.000000
26 0.828245 90.000000 30.374691 3763 -3641 00000000 90.000000
27 0.859498 90.000000 31.499708 3763 -3641 00000000 90.000000
28 0.890766 90.000000 32.625223 3763 -3641 00000000 90.000000
29 0.922025 90.000000 33.750180 3763 -3641 00000000 90.000000
30 0.953278 90.000000 34.874296 3763 -3641 00000000 90.000000
31 0.984502 90.000000 35.999545 3763 -3641 00000000 90.000000
32 1.015727 90.000000 37.125781 3763 -3641 00000000 90.000000
33 1.047055 90.000000 38.249442 3763 -3641 00000000 90.000000
34 1.078254 90.000000 39.375584 3763 -3641 00000000 90.000000
35 1.109514 90.000000 40.500275 3763 -3641 00000000 90.000000
36 1.140762 90.000000 41.625970 3763 -3641 00000000 90.000000
37 1.172030 90.000000 42.750112 3763 -3641 00000000 90.000000
38 1.203275 90.000000 43.875712 3763 -3641 00000000 90.000000
39 1.234551 90.000000 44.999983 3763 -3641 00000000 90.000000
40 1.265766 90.000000 46.125326 3763 -3641 00000000 90.000000
41 1.297063 90.000000 47.250009 3763 -3641 00000000 90.000000
42 1.328274 90.000000 48.375687 3763 -3641 00000000 90.000000
43 1.359566 90.000000 49.500240 3763 -3641 00000000 90.000000
44 1.390817 90.000000 50.624743 3763 -3641 00000000 90.000000
45 1.422058 90.000000 51.750798 3763 -3641 00000000 90.000000
46 1.453305 90.000000 52.874931 3763 -3641 00000000 90.000000
47 1.484593 90.000000 54.000300 3763 -3641 00000000 90.000000
48 1.515774 90.000000 55.125841 3763 -3641 00000000 90.000000
49 1.547105 90.000000 56.249940 3763 -3641 00000000 90.000000
50 1.578321 90.000000 57.374571 3763 -3641 00000000 90.000000
51 1.609591 90.000000 58.500215 3763 -3641 00000000 90.000000
52 1.640815 90.000000 59.625901 3763 -3641 00000000 90.000000
53 1.672114 90.000000 60.750901 3763 -3641 00000000 90.000000
54 1.703353 90.000000 61.875798 3763 -3641 00000000 90.000000
55 1.734627 90.000000 63.000764 3763 -3641 00000000 90.000000
56 1.765822 90.000000 64.124897 3763 -3641 00000000 90.000000
57 1.797109 90.000000 65.251021 3763 -3641 00000000 90.000000
58 1.828335 90.000000 66.374571 3763 -3641 00000000 90.000000
59 1.859608 90.000000 67.499228 3763 -3641 00000000 90.000000
60 1.890872 90.000000 68.625446 3763 -3641 00000000 90.000000
61 1.922098 90.000000 69.749434 3763 -3641 00000000 90.000000
62 1.953386 90.000000 70.876039 3763 -3641 00000000 90.000000
63 1.984626 90.000000 72.001021 3763 -3641 00000000 90.000000
64 2.015833 90.000000 73.124245 3763 -3641 00000000 90.000000
65 2.047142 90.000000 74.249245 3763 -3641 00000000 90.000000
66 2.078384 90.000000 75.374485 3763 -3641 00000000 90.000000
67 2.109639 90.000000 76.500609 3763 -3641 00000000 90.000000
68 2.140872 90.000000 77.624777 3763 -3641 00000000 90.000000
69 2.172168 90.000000 78.749828 3763 -3641 00000000 90.000000
70 2.203380 90.000000 79.876004 3763 -3641 00000000 90.000000
71 2.234660 90.000000 80.999279 3763 -3641 00000000 90.000000
72 2.265878 90.000000 82.125927 3763 -3641 00000000 90.000000
73 2.297180 90.000000 83.249880 3763 -3641 00000000 90.000000
74 2.328430 90.000000 84.374734 3763 -3641 00000000 90.000000
75 2.359632 90.000000 85.499657 3763 -3641 00000000 90.000000
76 2.390893 90.000000 86.624494 3763 -3641 00000000 90.000000
77 2.422166 90.000000 87.749391 3763 -3641 00000000 90.000000
78 2.453432 90.000000 88.876004 3763 -3641 00000000 90.000000
79 2.484699 90.000000 89.999880 3763 -3641 00000000 90.000000
80 2.515897 90.000000 91.125180 3763 -3641 00000000 90.000000
81 2.547176 90.000000 92.249717 3763 -3641 00000000 90.000000
82 2.578495 90.000000 93.374966 3763 -3641 00000000 90.000000
83 2.609687 90.000000 94.500026 3763 -3641 00000000 90.000000
84 2.640945 90.000000 95.625120 3763 -3641 00000000 90.000000
85 2.672172 90.000000 96.751090 3763 -3641 00000000 90.000000
86 2.703434 90.000000 97.874760 3763 -3641 00000000 90.000000
87 2.734705 90.000000 98.999365 3763 -3641 00000000 90.000000
88 2.765956 90.000000 100.125318 3763 -3641 00000000 90.000000
89 2.797210 90.000000 101.250034 3763 -3641 00000000 90.000000
90 2.828454 90.000000 102.375627 3763 -3641 00000000 90.000000
91 2.859671 90.000000 103.499537 3763 -3641 00000000 90.000000
92 2.890990 90.000000 104.625129 3763 -3641 00000000 90.000000
93 2.922216 90.000000 105.750463 3763 -3641 00000000 90.000000
94 2.953471 90.000000 106.875661 3763 -3641 00000000 90.000000
95 2.984760 90.000000 108.000927 3763 -3641 00000000 90.000000
96 3.015983 90.000000 109.125772 3763 -3641 00000000 90.000000
97 3.047267 90.000000 110.250558 3763 -3641 00000000 90.000000
98 3.078519 90.000000 111.375429 3763 -3641 00000000 90.000000
99 3.109724 90.000000 112.499313 3763 -3641 00000000 90.000000
100 3.140986 90.000000 113.625875 3763 -3641 00000000 90.000000
101 3.172262 90.000000 114.749519 3763 -3641 00000000 90.000000
102 3.203528 90.000000 115.875772 3763 -3641 00000000 90.000000
103 3.234756 90.000000 117.000910 3763 -3641 00000000 90.000000
104 3.265994 90.000000 118.124305 3763 -3641 00000000 90.000000
105 3.297296 90.000000 119.251013 3763 -3641 00000000 90.000000
106 3.328508 90.000000 120.375154 3763 -3641 00000000 90.000000
107 3.359719 90.000000 121.499279 3763 -3641 00000000 90.000000
108 3.391025 90.000000 122.625970 3763 -3641 00000000 90.000000
109 3.422312 90.000000 123.749691 3763 -3641 00000000 90.000000
110 3.453523 90.000000 124.875017 3763 -3641 00000000 90.000000
111 3.484792 90.000000 126.001159 3763 -3641 00000000 90.000000
112 3.516016 90.000000 127.125549 3763 -3641 00000000 90.000000
113 3.547289 90.000000 128.250644 3763 -3641 00000000 90.000000
114 3.578547 90.000000 129.376107 3763 -3641 00000000 90.000000
115 3.609756 90.000000 130.500712 3763 -3641 00000000 90.000000
116 3.641026 90.000000 131.624399 3763 -3641 00000000 90.000000
117 3.672316 90.000000 132.749485 3763 -3641 00000000 90.000000
118 3.703551 90.000000 133.875678 3763 -3641 00000000 90.000000
119 3.734824 90.000000 134.999279 3763 -3641 00000000 90.000000
120 3.766069 90.000000 136.125146 3763 -3641 00000000 90.000000
121 3.797305 90.000000 137.249888 3763 -3641 00000000 90.000000
122 3.828606 90.000000 138.376116 3763 -3641 00000000 90.000000
123 3.859793 90.000000 139.499416 3763 -3641 00000000 90.000000
124 3.891080 90.000000 140.625009 3763 -3641 00000000 90.000000
125 3.922312 90.000000 141.750635 3763 -3641 00000000 90.000000
126 3.953593 90.000000 142.875197 3763 -3641 00000000 90.000000
127 3.984833 90.000000 143.999725 3763 -3641 00000000 90.000000
128 4.016052 90.000000 145.124476 3763 -3641 00000000 90.000000
129 4.047347 90.000000 146.249279 3763 -3641 00000000 90.000000
130 4.078593 90.000000 147.374425 3763 -3641 00000000 90.000000
131 4.109846 90.000000 148.500369 3763 -3641 00000000 90.000000
132 4.141100 90.000000 149.624305 3763 -3641 00000000 90.000000
133 4.172369 90.000000 150.751047 3763 -3641 00000000 90.000000
134 4.203632 90.000000 151.875429 3763 -3641 00000000 90.000000
135 4.234886 90.000000 152.999459 3763 -3641 00000000 90.000000
136 4.266101 90.000000 154.126064 3763 -3641 00000000 90.000000
137 4.297364 90.000000 155.250060 3763 -3641 00000000 90.000000
138 4.328622 90.000000 156.374245 3763 -3641 00000000 90.000000
139 4.359836 90.000000 157.500927 3763 -3641 00000000 90.000000
140 4.391130 90.000000 158.625000 3763 -3641 00000000 90.000000
141 4.422364 90.000000 159.749579 3763 -3641 00000000 90.000000
142 4.453843 90.000000 160.874966 3763 -3641 00000000 90.000000
143 4.484890 90.000000 161.999605 3763 -3641 00000000 90.000000
144 4.516148 90.000000 163.125764 3763 -3641 00000000 90.000000
145 4.547420 90.000000 164.250249 3763 -3641 00000000 90.000000
146 4.578631 90.000000 165.374571 3763 -3641 00000000 90.000000
147 4.609902 90.000000 166.499940 3763 -3641 00000000 90.000000
148 4.641164 90.000000 167.626021 3763 -3641 00000000 90.000000
149 4.672433 90.000000 168.750369 3763 -3641 00000000 90.000000
150 4.703677 90.000000 169.874811 3763 -3641 00000000 90.000000
151 4.734920 90.000000 170.999511 3763 -3641 00000000 90.000000
152 4.766180 90.000000 172.125927 3763 -3641 00000000 90.000000
153 4.797433 90.000000 173.251124 3763 -3641 00000000 90.000000
154 4.828682 90.000000 174.375249 3763 -3641 00000000 90.000000
155 4.859910 90.000000 175.499906 3763 -3641 00000000 90.000000
156 4.891196 90.000000 176.625747 3763 -3641 00000000 90.000000
157 4.922419 90.000000 177.749888 3763 -3641 00000000 90.000000
158 4.953676 90.000000 178.874236 3763 -3641 00000000 90.000000
159 4.984919 90.000000 180.000309 3763 -3641 00000000 90.000000
160 5.016156 90.000000 181.125592 3763 -3641 00000000 90.000000
161 5.047451 90.000000 182.249622 3763 -3641 00000000 90.000000
162 5.078705 90.000000 183.374931 3763 -3641 00000000 90.000000
163 5.109926 90.000000 184.499236 3763 -3641 00000000 90.000000
164 5.141233 90.000000 185.624854 3763 -3641 00000000 90.000000
165 5.172469 90.000000 186.750884 3763 -3641 00000000 90.000000
166 5.203710 90.000000 187.876056 3763 -3641 00000000 90.000000
167 5.234972 90.000000 189.000009 3763 -3641 00000000 90.000000
168 5.266222 90.000000 190.124803 3763 -3641 00000000 90.000000
169 5.297466 90.000000 191.250747 3763 -3641 00000000 90.000000
170 5.328720 90.000000 192.374365 3763 -3641 00000000 90.000000
171 5.359952 90.000000 193.500738 3763 -3641 00000000 90.000000
172 5.391255 90.000000 194.625524 3763 -3641 00000000 90.000000
173 5.422472 90.000000 195.749313 3763 -3641 00000000 90.000000
174 5.453934 90.000000 196.875910 3763 -3641 00000000 90.000000
175 5.484993 90.000000 197.999991 3763 -3641 00000000 90.000000
176 5.516216 90.000000 199.125120 3763 -3641 00000000 90.000000
177 5.547500 90.000000 200.249708 3763 -3641 00000000 90.000000
178 5.578746 90.000000 201.375463 3763 -3641 00000000 90.000000
179 5.609970 90.000000 202.499614 3763 -3641 00000000 90.000000
180 5.641256 90.000000 203.624614 3763 -3641 00000000 90.000000
181 5.672517 90.000000 204.751013 3763 -3641 00000000 90.000000
182 5.703776 90.000000 205.875112 3763 -3641 00000000 90.000000
183 5.735040 90.000000 207.000180 3763 -3641 00000000 90.000000
184 5.766284 90.000000 208.126004 3763 -3641 00000000 90.000000
185 5.797530 90.000000 209.250257 3763 -3641 00000000 90.000000
186 5.828789 90.000000 210.375249 3763 -3641 00000000 90.000000
187 5.860015 90.000000 211.499348 3763 -3641 00000000 90.000000
188 5.891291 90.000000 212.626159 3763 -3641 00000000 90.000000
189 5.922534 90.000000 213.750403 3763 -3641 00000000 90.000000
190 5.953791 90.000000 214.875953 3763 -3641 00000000 90.000000
191 5.985070 90.000000 215.999245 3763 -3641 00000000 90.000000
192 6.016276 90.000000 217.124794 3763 -3641 00000000 90.000000
193 6.047535 90.000000 218.249768 3763 -3641 00000000 90.000000
194 6.078813 90.000000 219.374682 3763 -3641 00000000 90.000000
195 6.110069 90.000000 220.500137 3763 -3641 00000000 90.000000
196 6.141305 90.000000 221.625292 3763 -3641 00000000 90.000000
197 6.172538 90.000000 222.749888 3763 -3641 00000000 90.000000
198 6.203803 90.000000 223.875747 3763 -3641 00000000 90.000000
199 6.235096 90.000000 225.001150 3763 -3641 00000000 90.000000
200 6.266320 90.000000 226.125300 3763 -3641 00000000 90.000000
201 6.297574 90.000000 227.249760 3763 -3641 00000000 90.000000
202 6.328843 90.000000 228.375498 3763 -3641 00000000 90.000000
203 6.360057 90.000000 229.499511 3763 -3641 00000000 90.000000
204 6.391351 90.000000 230.624863 3763 -3641 00000000 90.000000
205 6.422598 90.000000 231.751116 3763 -3641 00000000 90.000000
206 6.453852 90.000000 232.876047 3763 -3641 00000000 90.000000
207 6.485115 90.000000 234.000661 3763 -3641 00000000 90.000000
208 6.516348 90.000000 235.124854 3763 -3641 00000000 90.000000
209 6.547601 90.000000 236.249631 3763 -3641 00000000 90.000000
210 6.578873 90.000000 237.376176 3763 -3641 00000000 90.000000
211 6.610081 90.000000 238.500240 3763 -3641 00000000 90.000000
212 6.641362 90.000000 239.624528 3763 -3641 00000000 90.000000
213 6.672634 90.000000 240.750893 3763 -3641 00000000 90.000000
214 6.703872 90.000000 241.874485 3763 -3641 00000000 90.000000
215 6.735153 90.000000 242.999571 3763 -3641 00000000 90.000000
216 6.766355 90.000000 244.125918 3763 -3641 00000000 90.000000
217 6.797626 90.000000 245.250180 3763 -3641 00000000 90.000000
218 6.828888 90.000000 246.375309 3763 -3641 00000000 90.000000
219 6.860128 90.000000 247.501142 3763 -3641 00000000 90.000000
220 6.891392 90.000000 248.624863 3763 -3641 00000000 90.000000
221 6.922650 90.000000 249.750120 3763 -3641 00000000 90.000000
222 6.953896 90.000000 250.875309 3763 -3641 00000000 90.000000
223 6.985136 90.000000 252.000197 3763 -3641 00000000 90.000000
224 7.016389 90.000000 253.124837 3763 -3641 00000000 90.000000
225 7.047680 90.000000 254.249914 3763 -3641 00000000 90.000000
226 7.078918 90.000000 255.375944 3763 -3641 00000000 90.000000
227 7.110174 90.000000 256.499820 3763 -3641 00000000 90.000000
228 7.141424 90.000000 257.625661 3763 -3641 00000000 90.000000
229 7.172630 90.000000 258.750318 3763 -3641 00000000 90.000000
230 7.203939 90.000000 259.874768 3763 -3641 00000000 90.000000
231 7.235197 90.000000 260.999760 3763 -3641 00000000 90.000000
232 7.266415 90.000000 262.124691 3763 -3641 00000000 90.000000
233 7.297679 90.000000 263.249305 3763 -3641 00000000 90.000000
234 7.328923 90.000000 264.374760 3763 -3641 00000000 90.000000
235 7.360171 90.000000 265.499691 3763 -3641 00000000 90.000000
236 7.391468 90.000000 266.626124 3763 -3641 00000000 90.000000
237 7.422662 90.000000 267.751090 3763 -3641 00000000 90.000000
238 7.453945 90.000000 268.875918 3763 -3641 00000000 90.000000
239 7.485196 90.000000 269.999399 3763 -3641 00000000 90.000000
240 7.516450 90.000000 -88.875292 3763 -3641 00000000 90.000000
241 7.547755 90.000000 -87.748910 3763 -3641 00000000 90.000000
242 7.578994 90.000000 -86.625421 3763 -3641 00000000 90.000000
243 7.610231 90.000000 -85.500609 3763 -3641 00000000 90.000000
244 7.641453 90.000000 -84.375463 3763 -3641 00000000 90.000000
245 7.672685 90.000000 -83.250103 3763 -3641 00000000 90.000000
246 7.703999 90.000000 -82.125695 3763 -3641 00000000 90.000000
247 7.735233 90.000000 -80.999502 3763 -3641 00000000 90.000000
248 7.766480 90.000000 -79.874056 3763 -3641 00000000 90.000000
249 7.797722 90.000000 -78.750043 3763 -3641 00000000 90.000000
250 7.828985 90.000000 -77.624554 3763 -3641 00000000 90.000000
251 7.860245 90.000000 -76.500240 3763 -3641 00000000 90.000000
252 7.891521 90.000000 -75.374399 3763 -3641 00000000 90.000000
253 7.922719 90.000000 -74.250266 3763 -3641 00000000 90.000000
254 7.953987 90.000000 -73.124777 3763 -3641 00000000 90.000000
255 7.985240 90.000000 -71.999476 3763 -3641 00000000 90.000000
256 8.016476 90.000000 -70.874743 3763 -3641 00000000 90.000000
257 8.047754 90.000000 -69.750601 3763 -3641 00000000 90.000000
258 8.079000 90.000000 -68.624047 3763 -3641 00000000 90.000000
259 8.110300 90.000000 -67.500112 3763 -3641 00000000 90.000000
260 8.141541 90.000000 -66.374537 3763 -3641 00000000 90.000000
261 8.172777 90.000000 -65.249751 3763 -3641 00000000 90.000000
262 8.204035 90.000000 -64.124176 3763 -3641 00000000 90.000000
263 8.235270 90.000000 -63.000266 3763 -3641 00000000 90.000000
264 8.266495 90.000000 -61.874974 3763 -3641 00000000 90.000000
265 8.297818 90.000000 -60.749940 3763 -3641 00000000 90.000000
266 8.329074 90.000000 -59.625249 3763 -3641 00000000 90.000000
267 8.360300 90.000000 -58.500601 3763 -3641 00000000 90.000000
268 8.391578 90.000000 -57.374305 3763 -3641 00000000 90.000000
269 8.422777 90.000000 -56.250652 3763 -3641 00000000 90.000000
270 8.454068 90.000000 -55.124743 3763 -3641 00000000 90.000000
271 8.485311 90.000000 -53.999777 3763 -3641 00000000 90.000000
272 8.516572 90.000000 -52.875069 3763 -3641 00000000 90.000000
273 8.547932 90.000000 -51.749579 3763 -3641 00000000 90.000000
274 8.579087 90.000000 -50.624039 3763 -3641 00000000 90.000000
275 8.610305 90.000000 -49.499674 3763 -3641 00000000 90.000000
276 8.641560 90.000000 -48.375180 3763 -3641 00000000 90.000000
277 8.672831 90.000000 -47.249133 3763 -3641 00000000 90.000000
278 8.704078 90.000000 -46.124966 3763 -3641 00000000 90.000000
279 8.735342 90.000000 -45.000584 3763 -3641 00000000 90.000000
280 8.766586 90.000000 -43.875781 3763 -3641 00000000 90.000000
281 8.797840 90.000000 -42.750189 3763 -3641 00000000 90.000000
282 8.829116 90.000000 -41.624322 3763 -3641 00000000 90.000000
283 8.860331 90.000000 -40.500541 3763 -3641 00000000 90.000000
284 8.891613 90.000000 -39.374502 3763 -3641 00000000 90.000000
285 8.922841 90.000000 -38.249665 3763 -3641 00000000 90.000000
286 8.954140 90.000000 -37.124674 3763 -3641 00000000 90.000000
287 8.985384 90.000000 -36.000154 3763 -3641 00000000 90.000000
288 9.016603 90.000000 -34.874502 3763 -3641 00000000 90.000000
289 9.047890 90.000000 -33.750584 3763 -3641 00000000 90.000000
290 9.079123 90.000000 -32.624528 3763 -3641 00000000 90.000000
291 9.110368 90.000000 -31.498996 3763 -3641 00000000 90.000000
292 9.141632 90.000000 -30.375335 3763 -3641 00000000 90.000000
293 9.172841 90.000000 -29.249322 3763 -3641 00000000 90.000000
294 9.204152 90.000000 -28.125738 3763 -3641 00000000 90.000000
295 9.235393 90.000000 -26.999511 3763 -3641 00000000 90.000000
296 9.266650 90.000000 -25.873841 3763 -3641 00000000 90.000000
297 9.297902 90.000000 -24.749940 3763 -3641 00000000 90.000000
298 9.329164 90.000000 -23.625232 3763 -3641 00000000 90.000000
299 9.360424 90.000000 -22.500154 3763 -3641 00000000 90.000000
300 9.391645 90.000000 -21.375652 3763 -3641 00000000 90.000000
301 9.422877 90.000000 -20.250240 3763 -3641 00000000 90.000000
302 9.454177 90.000000 -19.123910 3763 -3641 00000000 90.000000
303 9.485439 90.000000 -17.999923 3763 -3641 00000000 90.000000
304 9.516642 90.000000 -16.875438 3763 -3641 00000000 90.000000
305 9.547923 90.000000 -15.749459 3763 -3641 00000000 90.000000
306 9.579165 90.000000 -14.625712 3763 -3641 00000000 90.000000
307 9.610422 90.000000 -13.500352 3763 -3641 00000000 90.000000
308 9.641692 90.000000 -12.374554 3763 -3641 00000000 90.000000
309 9.672941 90.000000 -11.249682 3763 -3641 00000000 90.000000
310 9.704192 90.000000 -10.125601 3763 -3641 00000000 90.000000
311 9.735457 90.000000 -8.998893 3763 -3641 00000000 90.000000
312 9.766689 90.000000 -7.873850 3763 -3641 00000000 90.000000
313 9.797949 90.000000 -6.749966 3763 -3641 00000000 90.000000
