Data Counter, Data Time, Angle, Counter, Left Encoder Counts, Right Encoder Counts, Bumper Byte, Desired Heading
0, 0.000941, 3375.254, 361.171, 27178, -6413, 00000000, 90.19999999999999
1, 0.061622, 2655.254, -2517.700, 27178, -6413, 00000000, 90.19999999999999
2, 0.092860, 1935.254, -1796.576, 27178, -6413, 00000000, 90.19999999999999
3, 0.124117, 1215.254, -1075.452, 27178, -6413, 00000000, 90.19999999999999
4, 0.155298, 495.254, -354.361, 27178, -6413, 00000000, 90.19999999999999
5, 0.186571, 135.037, 6.763, 27177, -6412, 00000000, 90.19999999999999
6, 0.217835, 134.712, 7.889, 27175, -6411, 00000000, 90.19999999999999
7, 0.249039, 133.628, 9.015, 27170, -6406, 00000000, 90.19999999999999
8, 0.280336, 132.219, 10.138, 27164, -6399, 00000000, 90.19999999999999
9, 0.311541, 130.377, 11.264, 27155, -6391, 00000000, 90.19999999999999
10, 0.342777, 128.534, 12.389, 27147, -6382, 00000000, 30.87315798401501
11, 0.374050, 126.800, 13.515, 27139, -6374, 00000000, 30.87315798401501
12, 0.405285, 124.957, 14.640, 27131, -6365, 00000000, 30.87315798401501
13, 0.436544, 123.223, 15.765, 27123, -6357, 00000000, 30.87315798401501
14, 0.467819, 121.489, 16.889, 27115, -6349, 00000000, 30.87315798401501
15, 0.499036, 119.646, 18.014, 27106, -6341, 00000000, 30.87315798401501
16, 0.530290, 118.020, 19.137, 27099, -6333, 00000000, 30.87315798401501
17, 0.561534, 116.286, 20.264, 27091, -6325, 00000000, 30.87315798401501
18, 0.592819, 114.552, 21.390, 27083, -6317, 00000000, 30.87315798401501
19, 0.624035, 112.926, 22.512, 27075, -6310, 00000000, 30.87315798401501
20, 0.655309, 111.083, 23.638, 27067, -6301, 00000000, 30.87315798401501
21, 0.686646, 109.457, 24.766, 27059, -6294, 00000000, 30.87315798401501
22, 0.717814, 107.615, 25.889, 27050, -6286, 00000000, 30.87315798401501
23, 0.749128, 105.989, 27.017, 27043, -6278, 00000000, 30.87315798401501
24, 0.780268, 104.255, 28.137, 27035, -6270, 00000000, 30.87315798401501
25, 0.811661, 102.629, 29.267, 27027, -6263, 00000000, 30.87315798401501
26, 0.842782, 100.678, 30.388, 27018, -6254, 00000000, 30.87315798401501
27, 0.874020, 98.943, 31.512, 27010, -6246, 00000000, 30.87315798401501
28, 0.905370, 97.209, 32.642, 27002, -6238, 00000000, 30.87315798401501
29, 0.936542, 95.367, 33.763, 26993, -6230, 00000000, 30.87315798401501
30, 0.967785, 93.632, 34.888, 26985, -6222, 00000000, 30.87315798401501
31, 0.999043, 91.898, 36.013, 26977, -6214, 00000000, 30.87315798401501
32, 1.030237, 90.164, 37.135, 26969, -6206, 00000000, 30.87315798401501
33, 1.061610, 88.430, 38.264, 26961, -6198, 00000000, 30.87315798401501
34, 1.092863, 86.587, 39.389, 26953, -6189, 00000000, 30.87315798401501
35, 1.123985, 84.961, 40.509, 26946, -6181, 00000000, 30.87315798401501
36, 1.155360, 83.335, 41.639, 26938, -6174, 00000000, 30.87315798401501
37, 1.186529, 81.493, 42.761, 26930, -6165, 00000000, 30.87315798401501
38, 1.217758, 79.758, 43.887, 26922, -6157, 00000000, 30.87315798401501
39, 1.249011, 78.024, 45.011, 26914, -6149, 00000000, 30.87315798401501
40, 1.280212, 76.290, 46.134, 26906, -6141, 00000000, 30.87315798401501
41, 1.311631, 74.556, 47.264, 26898, -6133, 00000000, 30.87315798401501
42, 1.342780, 72.821, 48.386, 26890, -6125, 00000000, 30.87315798401501
43, 1.373985, 71.087, 49.509, 26882, -6117, 00000000, 30.87315798401501
44, 1.405265, 69.353, 50.636, 26874, -6109, 00000000, 30.87315798401501
45, 1.436612, 67.619, 51.764, 26866, -6101, 00000000, 30.87315798401501
46, 1.467748, 65.884, 52.886, 26858, -6093, 00000000, 30.87315798401501
47, 1.498990, 64.150, 54.011, 26850, -6085, 00000000, 30.87315798401501
48, 1.530209, 62.416, 55.134, 26842, -6077, 00000000, 30.87315798401501
49, 1.561531, 60.682, 56.261, 26834, -6069, 00000000, 30.87315798401501
50, 1.592736, 58.947, 57.386, 26826, -6061, 00000000, 30.87315798401501
51, 1.623976, 57.105, 58.509, 26818, -6052, 00000000, 30.87315798401501
52, 1.655320, 55.479, 59.638, 26810, -6045, 00000000, 30.87315798401501
53, 1.686519, 53.636, 60.760, 26802, -6036, 00000000, 30.87315798401501
54, 1.717742, 52.227, 61.885, 26795, -6030, 00000000, 30.87315798401501
55, 1.749001, 51.143, 63.010, 26790, -6025, 00000000, 30.87315798401501
56, 1.780207, 49.951, 64.133, 26785, -6019, 00000000, 30.87315798401501
57, 1.811466, 49.192, 65.260, 26781, -6016, 00000000, 30.87315798401501
58, 1.842837, 48.325, 66.388, 26777, -6012, 00000000, 30.87315798401501
59, 1.873974, 47.567, 67.508, 26774, -6008, 00000000, 30.87315798401501
60, 1.905259, 46.699, 68.635, 26770, -6004, 00000000, 30.87315798401501
61, 1.936472, 45.832, 69.760, 26766, -6000, 00000000, 30.87315798401501
62, 1.967718, 44.965, 70.885, 26762, -5996, 00000000, 30.87315798401501
63, 1.998971, 44.206, 72.010, 26758, -5993, 00000000, 30.87315798401501
64, 2.030194, 43.231, 73.133, 26754, -5988, 00000000, 30.87315798401501
65, 2.061498, 42.364, 74.260, 26750, -5984, 00000000, 30.87315798401501
66, 2.092727, 41.497, 75.385, 26746, -5980, 00000000, 30.87315798401501
67, 2.123969, 40.630, 76.508, 26741, -5977, 00000000, 30.87315798401501
68, 2.155226, 39.762, 77.635, 26738, -5972, 00000000, 30.87315798401501
69, 2.186456, 38.787, 78.760, 26733, -5968, 00000000, 30.87315798401501
70, 2.217725, 38.028, 79.885, 26730, -5964, 00000000, 30.87315798401501
71, 2.249087, 37.269, 81.013, 26726, -5961, 00000000, 30.87315798401501
72, 2.280209, 36.294, 82.133, 26722, -5956, 00000000, 30.87315798401501
73, 2.311463, 35.318, 83.259, 26717, -5952, 00000000, 30.87315798401501
74, 2.342725, 34.668, 84.384, 26714, -5949, 00000000, 30.87315798401501
75, 2.373940, 34.018, 85.508, 26711, -5946, 00000000, 30.87315798401501
76, 2.405191, 33.476, 86.634, 26709, -5943, 00000000, 30.87315798401501
77, 2.436469, 33.042, 87.759, 26707, -5941, 00000000, 30.87315798401501
78, 2.467832, 32.500, 88.887, 26704, -5939, 00000000, 30.87315798401501
79, 2.498975, 32.175, 90.009, 26703, -5937, 00000000, 30.87315798401501
80, 2.530194, 31.633, 91.132, 26700, -5935, 00000000, 30.87315798401501
81, 2.561475, 31.308, 92.259, 26699, -5933, 00000000, 30.87315798401501
82, 2.592692, 30.766, 93.384, 26696, -5931, 00000000, 30.87315798401501
83, 2.623931, 30.658, 94.507, 26696, -5930, 00000000, 30.87315798401501
84, 2.655175, 30.549, 95.634, 26695, -5930, 00000000, 30.87315798401501
85, 2.686415, 30.549, 96.758, 26695, -5930, 00000000, 30.87315798401501
86, 2.717663, 30.549, 97.883, 26695, -5930, 00000000, 30.87315798401501
87, 2.748952, 30.549, 99.008, 26695, -5930, 00000000, 30.87315798401501
88, 2.780156, 30.549, 100.132, 26695, -5930, 00000000, 30.87315798401501
89, 2.811454, 30.549, 101.257, 26695, -5930, 00000000, 30.87315798401501
90, 2.842678, 30.549, 102.383, 26695, -5930, 00000000, 30.87315798401501
91, 2.873901, 30.549, 103.507, 26695, -5930, 00000000, 30.87315798401501
92, 2.905193, 30.549, 104.632, 26695, -5930, 00000000, 30.87315798401501
93, 2.936423, 30.549, 105.757, 26695, -5930, 00000000, 30.87315798401501
94, 2.967669, 30.549, 106.882, 26695, -5930, 00000000, 30.87315798401501
95, 2.998954, 30.549, 108.007, 26695, -5930, 00000000, 30.87315798401501
96, 3.030135, 30.549, 109.131, 26695, -5930, 00000000, 30.87315798401501
97, 3.061435, 30.549, 110.258, 26695, -5930, 00000000, 30.87315798401501
98, 3.092688, 30.549, 111.382, 26695, -5930, 00000000, 30.87315798401501
99, 3.123885, 30.549, 112.506, 26695, -5930, 00000000, 30.87315798401501
100, 3.155140, 30.549, 113.632, 26695, -5930, 00000000, 30.87315798401501
101, 3.186423, 30.549, 114.757, 26695, -5930, 00000000, 30.87315798401501
102, 3.217694, 30.549, 115.882, 26695, -5930, 00000000, 30.87315798401501
103, 3.248939, 30.549, 117.007, 26695, -5930, 00000000, 30.87315798401501
104, 3.280159, 30.549, 118.131, 26695, -5930, 00000000, 30.87315798401501
105, 3.311400, 30.549, 119.257, 26695, -5930, 00000000, 30.87315798401501
106, 3.342664, 30.549, 120.382, 26695, -5930, 00000000, 30.87315798401501
107, 3.373917, 30.549, 121.506, 26695, -5930, 00000000, 30.87315798401501
108, 3.405176, 30.549, 122.632, 26695, -5930, 00000000, 30.87315798401501
109, 3.436436, 30.549, 123.757, 26695, -5930, 00000000, 30.87315798401501
110, 3.467686, 30.549, 124.883, 26695, -5930, 00000000, 30.87315798401501
111, 3.498881, 30.549, 126.006, 26695, -5930, 00000000, 30.87315798401501
112, 3.530135, 30.549, 127.131, 26695, -5930, 00000000, 30.87315798401501
113, 3.561414, 30.549, 128.256, 26695, -5930, 00000000, 30.87315798401501
114, 3.592684, 30.549, 129.382, 26695, -5930, 00000000, 30.87315798401501
115, 3.623908, 30.549, 130.506, 26695, -5930, 00000000, 30.87315798401501
116, 3.655121, 30.549, 131.631, 26695, -5930, 00000000, 30.87315798401501
117, 3.686429, 30.549, 132.756, 26695, -5930, 00000000, 30.87315798401501
118, 3.717774, 30.549, 133.885, 26695, -5930, 00000000, 30.87315798401501
119, 3.748877, 30.549, 135.006, 26695, -5930, 00000000, 30.87315798401501
120, 3.780122, 30.549, 136.130, 26695, -5930, 00000000, 30.87315798401501
121, 3.811411, 30.549, 137.256, 26695, -5930, 00000000, 30.87315798401501
122, 3.842666, 30.549, 138.381, 26695, -5930, 00000000, 30.87315798401501
123, 3.873872, 30.549, 139.505, 26695, -5930, 00000000, 30.87315798401501
124, 3.905117, 30.549, 140.631, 26695, -5930, 00000000, 30.87315798401501
125, 3.936364, 30.549, 141.755, 26695, -5930, 00000000, 30.87315798401501
126, 3.967655, 30.549, 142.881, 26695, -5930, 00000000, 30.87315798401501
127, 3.998880, 30.549, 144.006, 26695, -5930, 00000000, 30.87315798401501
128, 4.030099, 30.549, 145.130, 26695, -5930, 00000000, 30.87315798401501
129, 4.061388, 30.549, 146.256, 26695, -5930, 00000000, 30.87315798401501
130, 4.092649, 30.549, 147.381, 26695, -5930, 00000000, 30.87315798401501
131, 4.123873, 30.549, 148.505, 26695, -5930, 00000000, 30.87315798401501
132, 4.155139, 30.549, 149.631, 26695, -5930, 00000000, 30.87315798401501
133, 4.186386, 30.549, 150.755, 26695, -5930, 00000000, 30.87315798401501
134, 4.217627, 30.549, 151.880, 26695, -5930, 00000000, 30.87315798401501
135, 4.248896, 30.549, 153.005, 26695, -5930, 00000000, 30.87315798401501
136, 4.280118, 30.549, 154.130, 26695, -5930, 00000000, 30.87315798401501
137, 4.311386, 30.549, 155.255, 26695, -5930, 00000000, 30.87315798401501
138, 4.342631, 30.549, 156.380, 26695, -5930, 00000000, 30.87315798401501
139, 4.373827, 30.549, 157.505, 26695, -5930, 00000000, 30.87315798401501
140, 4.405123, 30.549, 158.630, 26695, -5930, 00000000, 30.87315798401501
141, 4.436373, 30.549, 159.754, 26695, -5930, 00000000, 30.87315798401501
142, 4.467628, 30.549, 160.880, 26695, -5930, 00000000, 30.87315798401501
143, 4.498870, 30.549, 162.005, 26695, -5930, 00000000, 30.87315798401501
144, 4.530114, 30.549, 163.129, 26695, -5930, 00000000, 30.87315798401501
145, 4.561377, 30.549, 164.255, 26695, -5930, 00000000, 30.87315798401501
146, 4.592612, 30.549, 165.380, 26695, -5930, 00000000, 30.87315798401501
147, 4.623853, 30.549, 166.504, 26695, -5930, 00000000, 30.87315798401501
148, 4.655119, 30.549, 167.630, 26695, -5930, 00000000, 30.87315798401501
149, 4.686366, 30.549, 168.754, 26695, -5930, 00000000, 30.87315798401501
150, 4.717621, 30.549, 169.880, 26695, -5930, 00000000, 30.87315798401501
151, 4.748827, 30.549, 171.005, 26695, -5930, 00000000, 30.87315798401501
152, 4.780072, 30.549, 172.129, 26695, -5930, 00000000, 30.87315798401501
153, 4.811359, 30.549, 173.255, 26695, -5930, 00000000, 30.87315798401501
154, 4.842598, 30.549, 174.380, 26695, -5930, 00000000, 30.87315798401501
155, 4.873827, 30.549, 175.504, 26695, -5930, 00000000, 30.87315798401501
156, 4.905082, 30.549, 176.629, 26695, -5930, 00000000, 30.87315798401501
157, 4.936332, 30.549, 177.754, 26695, -5930, 00000000, 30.87315798401501
158, 4.967609, 30.549, 178.879, 26695, -5930, 00000000, 30.87315798401501
159, 4.998866, 30.549, 180.004, 26695, -5930, 00000000, 30.87315798401501
160, 5.030055, 30.549, 181.129, 26695, -5930, 00000000, 30.87315798401501
161, 5.061333, 30.549, 182.254, 26695, -5930, 00000000, 30.87315798401501
162, 5.092598, 30.549, 183.379, 26695, -5930, 00000000, 30.87315798401501
163, 5.123837, 30.549, 184.503, 26695, -5930, 00000000, 30.87315798401501
164, 5.155066, 30.549, 185.629, 26695, -5930, 00000000, 30.87315798401501
165, 5.186308, 30.549, 186.753, 26695, -5930, 00000000, 30.87315798401501
166, 5.217590, 30.549, 187.879, 26695, -5930, 00000000, 30.87315798401501
167, 5.248836, 30.549, 189.003, 26695, -5930, 00000000, 30.87315798401501
168, 5.280067, 30.549, 190.128, 26695, -5930, 00000000, 30.87315798401501
169, 5.311295, 30.549, 191.253, 26695, -5930, 00000000, 30.87315798401501
170, 5.342555, 30.549, 192.379, 26695, -5930, 00000000, 30.87315798401501
171, 5.373793, 30.549, 193.503, 26695, -5930, 00000000, 30.87315798401501
172, 5.405098, 30.549, 194.628, 26695, -5930, 00000000, 30.87315798401501
173, 5.436303, 30.549, 195.752, 26695, -5930, 00000000, 30.87315798401501
174, 5.467547, 30.549, 196.878, 26695, -5930, 00000000, 30.87315798401501
175, 5.498806, 30.549, 198.003, 26695, -5930, 00000000, 30.87315798401501
176, 5.530084, 30.549, 199.128, 26695, -5930, 00000000, 30.87315798401501
177, 5.561312, 30.549, 200.253, 26695, -5930, 00000000, 30.87315798401501
178, 5.592576, 30.549, 201.378, 26695, -5930, 00000000, 30.87315798401501
179, 5.623823, 30.549, 202.503, 26695, -5930, 00000000, 30.87315798401501
180, 5.655057, 30.549, 203.628, 26695, -5930, 00000000, 30.87315798401501
181, 5.686303, 30.549, 204.752, 26695, -5930, 00000000, 30.87315798401501
182, 5.717568, 30.549, 205.878, 26695, -5930, 00000000, 30.87315798401501
183, 5.748800, 30.549, 207.003, 26695, -5930, 00000000, 30.87315798401501
184, 5.780045, 30.549, 208.127, 26695, -5930, 00000000, 30.87315798401501
185, 5.811282, 30.549, 209.252, 26695, -5930, 00000000, 30.87315798401501
186, 5.842588, 30.549, 210.378, 26695, -5930, 00000000, 30.87315798401501
187, 5.873771, 30.549, 211.502, 26695, -5930, 00000000, 30.87315798401501
188, 5.905058, 30.549, 212.628, 26695, -5930, 00000000, 30.87315798401501
189, 5.936256, 30.549, 213.752, 26695, -5930, 00000000, 30.87315798401501
190, 5.967565, 30.549, 214.877, 26695, -5930, 00000000, 30.87315798401501
191, 5.998808, 30.549, 216.002, 26695, -5930, 00000000, 30.87315798401501
192, 6.030016, 30.549, 217.127, 26695, -5930, 00000000, 30.87315798401501
193, 6.061309, 30.549, 218.253, 26695, -5930, 00000000, 30.87315798401501
194, 6.092534, 30.549, 219.377, 26695, -5930, 00000000, 30.87315798401501
195, 6.123765, 30.549, 220.502, 26695, -5930, 00000000, 30.87315798401501
196, 6.155075, 30.549, 221.627, 26695, -5930, 00000000, 30.87315798401501
197, 6.186270, 30.549, 222.751, 26695, -5930, 00000000, 30.87315798401501
198, 6.217517, 30.549, 223.877, 26695, -5930, 00000000, 30.87315798401501
199, 6.248813, 30.549, 225.002, 26695, -5930, 00000000, 30.87315798401501
200, 6.280028, 30.549, 226.127, 26695, -5930, 00000000, 30.87315798401501
201, 6.311264, 30.549, 227.252, 26695, -5930, 00000000, 30.87315798401501
202, 6.342546, 30.549, 228.377, 26695, -5930, 00000000, 30.87315798401501
203, 6.373754, 30.549, 229.501, 26695, -5930, 00000000, 30.87315798401501
204, 6.405017, 30.549, 230.627, 26695, -5930, 00000000, 30.87315798401501
205, 6.436301, 30.549, 231.752, 26695, -5930, 00000000, 30.87315798401501
206, 6.467563, 30.549, 232.877, 26695, -5930, 00000000, 30.87315798401501
207, 6.498804, 30.549, 234.002, 26695, -5930, 00000000, 30.87315798401501
208, 6.530038, 30.549, 235.126, 26695, -5930, 00000000, 30.87315798401501
209, 6.561263, 30.549, 236.252, 26695, -5930, 00000000, 30.87315798401501
210, 6.592511, 30.549, 237.377, 26695, -5930, 00000000, 30.87315798401501
211, 6.623793, 30.549, 238.502, 26695, -5930, 00000000, 30.87315798401501
212, 6.655025, 30.549, 239.627, 26695, -5930, 00000000, 30.87315798401501
213, 6.686255, 30.549, 240.751, 26695, -5930, 00000000, 30.87315798401501
214, 6.717501, 30.549, 241.877, 26695, -5930, 00000000, 30.87315798401501
215, 6.748806, 30.549, 243.002, 26695, -5930, 00000000, 30.87315798401501
216, 6.780023, 30.549, 244.126, 26695, -5930, 00000000, 30.87315798401501
217, 6.811253, 30.549, 245.252, 26695, -5930, 00000000, 30.87315798401501
218, 6.842511, 30.549, 246.377, 26695, -5930, 00000000, 30.87315798401501
219, 6.873764, 30.549, 247.501, 26695, -5930, 00000000, 30.87315798401501
220, 6.905044, 30.549, 248.626, 26695, -5930, 00000000, 30.87315798401501
221, 6.936244, 30.549, 249.751, 26695, -5930, 00000000, 30.87315798401501
222, 6.967490, 30.549, 250.877, 26695, -5930, 00000000, 30.87315798401501
223, 6.998764, 30.549, 252.001, 26695, -5930, 00000000, 30.87315798401501
224, 7.029967, 30.549, 253.126, 26695, -5930, 00000000, 30.87315798401501
225, 7.061291, 30.549, 254.253, 26695, -5930, 00000000, 30.87315798401501
226, 7.092537, 30.549, 255.376, 26695, -5930, 00000000, 30.87315798401501
227, 7.123748, 30.549, 256.501, 26695, -5930, 00000000, 30.87315798401501
228, 7.154998, 30.549, 257.626, 26695, -5930, 00000000, 30.87315798401501
229, 7.186259, 30.549, 258.751, 26695, -5930, 00000000, 30.87315798401501
230, 7.217527, 30.549, 259.876, 26695, -5930, 00000000, 30.87315798401501
231, 7.248754, 30.549, 261.001, 26695, -5930, 00000000, 30.87315798401501
232, 7.279960, 30.549, 262.125, 26695, -5930, 00000000, 30.87315798401501
233, 7.311232, 30.549, 263.251, 26695, -5930, 00000000, 30.87315798401501
234, 7.342525, 30.549, 264.376, 26695, -5930, 00000000, 30.87315798401501
235, 7.373747, 30.549, 265.500, 26695, -5930, 00000000, 30.87315798401501
236, 7.404984, 30.549, 266.626, 26695, -5930, 00000000, 30.87315798401501
237, 7.436209, 30.549, 267.750, 26695, -5930, 00000000, 30.87315798401501
238, 7.467516, 30.549, 268.876, 26695, -5930, 00000000, 30.87315798401501
239, 7.498747, 30.549, 270.001, 26695, -5930, 00000000, 30.87315798401501
240, 7.529953, 30.549, 271.125, 26695, -5930, 00000000, 30.87315798401501
241, 7.561252, 30.549, 272.251, 26695, -5930, 00000000, 30.87315798401501
242, 7.592496, 30.549, 273.376, 26695, -5930, 00000000, 30.87315798401501
243, 7.623743, 30.549, 274.500, 26695, -5930, 00000000, 30.87315798401501
244, 7.655002, 30.549, 275.625, 26695, -5930, 00000000, 30.87315798401501
245, 7.686220, 30.549, 276.750, 26695, -5930, 00000000, 30.87315798401501
246, 7.717509, 30.549, 277.876, 26695, -5930, 00000000, 30.87315798401501
247, 7.748743, 30.549, 279.000, 26695, -5930, 00000000, 30.87315798401501
248, 7.779981, 30.549, 280.125, 26695, -5930, 00000000, 30.87315798401501
249, 7.811262, 30.549, 281.250, 26695, -5930, 00000000, 30.87315798401501
250, 7.842481, 30.549, 282.376, 26695, -5930, 00000000, 30.87315798401501
251, 7.873711, 30.549, 283.500, 26695, -5930, 00000000, 30.87315798401501
252, 7.905014, 30.549, 284.626, 26695, -5930, 00000000, 30.87315798401501
253, 7.936233, 30.549, 285.750, 26695, -5930, 00000000, 30.87315798401501
254, 7.967461, 30.549, 286.875, 26695, -5930, 00000000, 30.87315798401501
255, 7.998702, 30.549, 288.000, 26695, -5930, 00000000, 30.87315798401501
256, 8.029966, 30.549, 289.124, 26695, -5930, 00000000, 30.87315798401501
257, 8.061210, 30.549, 290.250, 26695, -5930, 00000000, 30.87315798401501
258, 8.092500, 30.549, 291.375, 26695, -5930, 00000000, 30.87315798401501
259, 8.123744, 30.549, 292.500, 26695, -5930, 00000000, 30.87315798401501
260, 8.154969, 30.549, 293.625, 26695, -5930, 00000000, 30.87315798401501
261, 8.186187, 30.549, 294.750, 26695, -5930, 00000000, 30.87315798401501
262, 8.217499, 30.549, 295.875, 26695, -5930, 00000000, 30.87315798401501
263, 8.248696, 30.549, 296.999, 26695, -5930, 00000000, 30.87315798401501
264, 8.279930, 30.549, 298.126, 26695, -5930, 00000000, 30.87315798401501
265, 8.311219, 30.549, 299.249, 26695, -5930, 00000000, 30.87315798401501
266, 8.342472, 30.549, 300.375, 26695, -5930, 00000000, 30.87315798401501
267, 8.373713, 30.549, 301.499, 26695, -5930, 00000000, 30.87315798401501
268, 8.404966, 30.549, 302.626, 26695, -5930, 00000000, 30.87315798401501
269, 8.436176, 30.549, 303.751, 26695, -5930, 00000000, 30.87315798401501
