Data Counter, Data Time, Angle, Counter, Left Encoder Counts, Right Encoder Counts, Bumper Byte, Desired Heading
0, 0.016984, 345.000, 1.125, -28473, 13362, 00000000, 354.7199440956116
1, 0.048172, 345.000, 2.251, -28473, 13362, 00000000, 354.195703125
2, 0.079335, 345.000, 3.377, -28473, 13362, 00000000, 354.195703125
3, 0.110655, 345.000, 4.500, -28472, 13363, 00000000, 354.195703125
4, 0.141758, 345.325, 5.626, -28471, 13361, 00000000, 354.195703125
5, 0.173137, 345.976, 6.751, -28468, 13358, 00000000, 354.195703125
6, 0.204135, 346.843, 7.876, -28464, 13354, 00000000, 354.195703125
7, 0.235572, 347.818, 8.999, -28460, 13349, 00000000, 354.195703125
8, 0.266825, 348.685, 10.125, -28456, 13345, 00000000, 354.195703125
9, 0.297964, 349.552, -348.749, -28452, 13341, 00000000, 354.195703125
10, 0.329268, 350.528, -347.626, -28448, 13336, 00000000, 354.195703125
11, 0.360535, 351.287, -346.499, -28444, 13333, 00000000, 354.195703125
12, 0.391701, 351.937, -345.374, -28441, 13330, 00000000, 354.195703125
13, 0.422910, 352.479, -344.250, -28439, 13327, 00000000, 354.195703125
14, 0.454007, 353.021, -343.123, -28436, 13325, 00000000, 354.195703125
15, 0.485366, 353.346, -342.000, -28435, 13323, 00000000, 354.195703125
16, 0.516608, 353.671, -340.874, -28433, 13322, 00000000, 354.195703125
17, 0.547852, 354.105, -339.752, -28431, 13320, 00000000, 354.195703125
18, 0.579151, 354.430, -338.624, -28430, 13318, 00000000, 354.195703125
19, 0.610242, 354.538, -337.501, -28429, 13318, 00000000, 354.195703125
20, 0.641522, 354.538, -336.373, -28429, 13318, 00000000, 354.195703125
21, 0.672787, 354.538, -335.252, -28429, 13318, 00000000, 354.195703125
22, 0.703817, 354.538, -334.126, -28429, 13318, 00000000, 354.195703125
23, 0.735251, 354.538, -333.002, -28429, 13318, 00000000, 354.195703125
24, 0.766422, 354.538, -331.877, -28429, 13318, 00000000, 354.195703125
25, 0.797704, 354.538, -330.751, -28429, 13318, 00000000, 354.195703125
26, 0.828865, 354.538, -329.624, -28429, 13318, 00000000, 354.195703125
27, 0.860038, 354.538, -328.502, -28429, 13318, 00000000, 354.195703125
28, 0.891408, 354.538, -327.374, -28429, 13318, 00000000, 354.195703125
29, 0.922666, 354.538, -326.249, -28429, 13318, 00000000, 354.195703125
30, 0.953693, 354.538, -325.126, -28429, 13318, 00000000, 354.195703125
31, 0.985076, 354.538, -324.000, -28429, 13318, 00000000, 354.195703125
32, 1.016166, 354.538, -322.877, -28429, 13318, 00000000, 354.195703125
33, 1.047592, 354.538, -321.752, -28429, 13318, 00000000, 354.195703125
34, 1.078800, 354.538, -320.627, -28429, 13318, 00000000, 354.195703125
35, 1.109865, 354.538, -319.500, -28429, 13318, 00000000, 354.195703125
36, 1.141281, 354.538, -318.373, -28429, 13318, 00000000, 354.195703125
37, 1.172417, 354.538, -317.249, -28429, 13318, 00000000, 354.195703125
38, 1.203655, 354.538, -316.125, -28429, 13318, 00000000, 354.195703125
39, 1.234920, 354.538, -315.000, -28429, 13318, 00000000, 354.195703125
40, 1.266049, 354.538, -313.876, -28429, 13318, 00000000, 354.195703125
41, 1.297424, 354.538, -312.750, -28429, 13318, 00000000, 354.195703125
42, 1.328592, 354.538, -311.627, -28429, 13318, 00000000, 354.195703125
43, 1.359697, 354.538, -310.502, -28429, 13318, 00000000, 354.195703125
44, 1.391111, 354.538, -309.375, -28429, 13318, 00000000, 354.195703125
45, 1.422136, 354.538, -308.251, -28429, 13318, 00000000, 354.195703125
46, 1.453505, 354.538, -307.124, -28429, 13318, 00000000, 354.195703125
47, 1.484810, 354.538, -305.998, -28429, 13318, 00000000, 354.195703125
48, 1.515801, 354.538, -304.876, -28429, 13318, 00000000, 354.195703125
49, 1.547242, 354.538, -303.750, -28429, 13318, 00000000, 354.195703125
50, 1.578559, 354.538, -302.624, -28429, 13318, 00000000, 354.195703125
51, 1.609681, 354.538, -301.500, -28429, 13318, 00000000, 354.195703125
52, 1.640958, 354.538, -300.376, -28429, 13318, 00000000, 354.195703125
53, 1.671998, 354.538, -299.251, -28429, 13318, 00000000, 354.195703125
54, 1.703396, 354.538, -298.126, -28429, 13318, 00000000, 354.195703125
55, 1.734641, 354.538, -297.000, -28429, 13318, 00000000, 354.195703125
56, 1.765756, 354.538, -295.874, -28429, 13318, 00000000, 354.195703125
57, 1.797120, 354.538, -294.750, -28429, 13318, 00000000, 354.195703125
58, 1.828177, 354.538, -293.628, -28429, 13318, 00000000, 354.195703125
59, 1.859568, 354.538, -292.501, -28429, 13318, 00000000, 354.195703125
60, 1.906282, 354.538, -291.293, -28429, 13318, 00000000, 354.195703125
61, 1.921830, 354.538, -290.249, -28429, 13318, 00000000, 354.195703125
62, 1.953272, 354.538, -289.124, -28429, 13318, 00000000, 354.195703125
63, 2.000035, 354.538, -287.919, -28429, 13318, 00000000, 354.195703125
64, 2.015739, 354.538, -286.874, -28429, 13318, 00000000, 354.195703125
65, 2.046969, 354.538, -285.752, -28429, 13318, 00000000, 354.195703125
66, 2.093622, 354.538, -284.548, -28429, 13318, 00000000, 354.195703125
67, 2.125020, 354.538, -283.417, -28429, 13318, 00000000, 354.195703125
68, 2.156062, 354.538, -282.300, -28429, 13318, 00000000, 354.195703125
69, 2.187536, 354.538, -281.164, -28429, 13318, 00000000, 354.195703125
70, 2.218795, 354.538, -280.043, -28429, 13318, 00000000, 354.195703125
71, 2.249878, 354.538, -278.924, -28429, 13318, 00000000, 354.195703125
72, 2.281194, 354.538, -277.797, -28429, 13318, 00000000, 354.195703125
73, 2.312508, 354.538, -276.669, -28429, 13318, 00000000, 354.195703125
74, 2.343755, 354.538, -275.545, -28429, 13318, 00000000, 354.195703125
75, 2.374985, 354.538, -274.418, -28429, 13318, 00000000, 354.195703125
76, 2.406014, 354.538, -273.302, -28429, 13318, 00000000, 354.195703125
77, 2.437326, 354.538, -272.177, -28429, 13318, 00000000, 354.195703125
78, 2.468675, 354.538, -271.049, -28429, 13318, 00000000, 354.195703125
79, 2.499652, 354.538, -269.932, -28429, 13318, 00000000, 354.195703125
80, 2.531091, 354.538, -268.801, -28429, 13318, 00000000, 354.195703125
81, 2.562151, 354.538, -267.682, -28429, 13318, 00000000, 354.195703125
82, 2.593545, 354.538, -266.554, -28429, 13318, 00000000, 354.195703125
83, 2.624839, 354.538, -265.423, -28429, 13318, 00000000, 354.195703125
84, 2.655794, 354.538, -264.308, -28429, 13318, 00000000, 354.195703125
85, 2.687300, 354.538, -263.175, -28429, 13318, 00000000, 354.195703125
86, 2.718469, 354.538, -262.054, -28429, 13318, 00000000, 354.195703125
87, 2.749642, 354.538, -260.931, -28429, 13318, 00000000, 354.195703125
88, 2.781000, 354.538, -259.804, -28429, 13318, 00000000, 354.195703125
89, 2.811965, 354.538, -258.688, -28429, 13318, 00000000, 354.195703125
90, 2.843346, 354.538, -257.559, -28429, 13318, 00000000, 354.195703125
91, 2.874691, 354.538, -256.430, -28429, 13318, 00000000, 354.195703125
92, 2.905723, 354.538, -255.313, -28429, 13318, 00000000, 354.195703125
93, 2.937123, 354.538, -254.184, -28429, 13318, 00000000, 354.195703125
94, 2.968106, 354.538, -253.065, -28429, 13318, 00000000, 354.195703125
95, 2.999510, 354.538, -251.936, -28429, 13318, 00000000, 354.195703125
96, 3.030810, 354.538, -250.811, -28429, 13318, 00000000, 354.195703125
97, 3.061818, 354.538, -249.694, -28429, 13318, 00000000, 354.195703125
98, 3.093309, 354.538, -248.561, -28429, 13318, 00000000, 354.195703125
99, 3.124457, 354.538, -247.438, -28429, 13318, 00000000, 354.195703125
100, 3.155656, 354.538, -246.315, -28429, 13318, 00000000, 354.195703125
101, 3.186937, 354.538, -245.191, -28429, 13318, 00000000, 354.195703125
102, 3.218031, 354.538, -244.070, -28429, 13318, 00000000, 354.195703125
103, 3.249367, 354.538, -242.942, -28429, 13318, 00000000, 354.195703125
104, 3.280711, 354.538, -241.805, -28429, 13318, 00000000, 354.195703125
105, 3.311661, 354.538, -240.698, -28429, 13318, 00000000, 354.195703125
106, 3.343069, 354.538, -239.569, -28429, 13318, 00000000, 354.195703125
107, 3.374197, 354.538, -238.447, -28429, 13318, 00000000, 354.195703125
108, 3.405520, 354.538, -237.319, -28429, 13318, 00000000, 354.195703125
109, 3.436802, 354.538, -236.195, -28429, 13318, 00000000, 354.195703125
110, 3.467834, 354.538, -235.079, -28429, 13318, 00000000, 354.195703125
111, 3.499295, 354.538, -233.946, -28429, 13318, 00000000, 354.195703125
112, 3.530580, 354.538, -232.820, -28429, 13318, 00000000, 354.195703125
113, 3.561774, 354.538, -231.696, -28429, 13318, 00000000, 354.195703125
114, 3.592908, 354.538, -230.574, -28429, 13318, 00000000, 354.195703125
115, 3.623995, 354.538, -229.453, -28429, 13318, 00000000, 354.195703125
116, 3.655497, 354.538, -228.320, -28429, 13318, 00000000, 354.195703125
117, 3.686724, 354.538, -227.198, -28429, 13318, 00000000, 354.195703125
118, 3.717711, 354.538, -226.081, -28429, 13318, 00000000, 354.195703125
119, 3.749161, 354.538, -224.950, -28429, 13318, 00000000, 354.195703125
120, 3.780169, 354.538, -223.835, -28429, 13318, 00000000, 354.195703125
121, 3.811661, 354.538, -222.701, -28429, 13318, 00000000, 354.195703125
122, 3.842875, 354.538, -221.576, -28429, 13318, 00000000, 354.195703125
123, 3.873830, 354.538, -220.462, -28429, 13318, 00000000, 354.195703125
124, 3.905324, 354.538, -219.327, -28429, 13318, 00000000, 354.195703125
125, 3.936461, 354.538, -218.205, -28429, 13318, 00000000, 354.195703125
126, 3.967702, 354.538, -217.080, -28429, 13318, 00000000, 354.195703125
127, 3.998976, 354.538, -215.953, -28429, 13318, 00000000, 354.195703125
128, 4.030002, 354.538, -214.837, -28429, 13318, 00000000, 354.195703125
129, 4.061456, 354.538, -213.707, -28429, 13318, 00000000, 354.195703125
130, 4.092710, 354.538, -212.583, -28429, 13318, 00000000, 354.195703125
131, 4.123746, 354.538, -211.464, -28429, 13318, 00000000, 354.195703125
132, 4.155191, 354.538, -210.332, -28429, 13318, 00000000, 354.195703125
133, 4.186249, 354.538, -209.214, -28429, 13318, 00000000, 354.195703125
134, 4.217577, 354.538, -208.087, -28429, 13318, 00000000, 354.195703125
135, 4.248902, 354.538, -206.959, -28429, 13318, 00000000, 354.195703125
136, 4.279948, 354.538, -205.840, -28429, 13318, 00000000, 354.195703125
137, 4.311273, 354.538, -204.713, -28429, 13318, 00000000, 354.195703125
138, 4.342539, 354.538, -203.588, -28429, 13318, 00000000, 354.195703125
139, 4.373811, 354.538, -202.464, -28429, 13318, 00000000, 354.195703125
140, 4.404965, 354.538, -201.340, -28429, 13318, 00000000, 354.195703125
141, 4.436047, 354.538, -200.220, -28429, 13318, 00000000, 354.195703125
142, 4.467426, 354.538, -199.092, -28429, 13318, 00000000, 354.195703125
143, 4.498767, 354.538, -197.964, -28429, 13318, 00000000, 354.195703125
144, 4.529800, 354.538, -196.848, -28429, 13318, 00000000, 354.195703125
145, 4.561283, 354.538, -195.715, -28429, 13318, 00000000, 354.195703125
146, 4.592207, 354.538, -194.597, -28429, 13318, 00000000, 354.195703125
147, 4.623565, 354.538, -193.469, -28429, 13318, 00000000, 354.195703125
148, 4.654885, 354.538, -192.341, -28429, 13318, 00000000, 354.195703125
149, 4.685877, 354.538, -191.227, -28429, 13318, 00000000, 354.195703125
150, 4.717285, 354.538, -190.097, -28429, 13318, 00000000, 354.195703125
151, 4.748583, 354.538, -188.971, -28429, 13318, 00000000, 354.195703125
152, 4.779799, 354.538, -187.841, -28429, 13318, 00000000, 354.195703125
153, 4.811018, 354.538, -186.724, -28429, 13318, 00000000, 354.195703125
154, 4.842131, 354.538, -185.604, -28429, 13318, 00000000, 354.195703125
155, 4.873516, 354.538, -184.474, -28429, 13318, 00000000, 354.195703125
156, 4.904652, 354.538, -183.350, -28429, 13318, 00000000, 354.195703125
157, 4.935816, 354.538, -182.228, -28429, 13318, 00000000, 354.195703125
158, 4.967131, 354.538, -181.103, -28429, 13318, 00000000, 354.195703125
159, 4.998275, 354.538, -179.982, -28429, 13318, 00000000, 354.195703125
160, 5.029575, 354.538, -178.855, -28429, 13318, 00000000, 354.195703125
161, 5.060834, 354.538, -177.730, -28429, 13318, 00000000, 354.195703125
162, 5.091962, 354.538, -176.609, -28429, 13318, 00000000, 354.195703125
163, 5.123406, 354.538, -175.479, -28429, 13318, 00000000, 354.195703125
164, 5.154578, 354.538, -174.353, -28429, 13318, 00000000, 354.195703125
165, 5.185872, 354.538, -173.225, -28429, 13318, 00000000, 354.195703125
166, 5.217064, 354.538, -172.103, -28429, 13318, 00000000, 354.195703125
167, 5.248107, 354.538, -170.986, -28429, 13318, 00000000, 354.195703125
168, 5.279437, 354.538, -169.860, -28429, 13318, 00000000, 354.195703125
169, 5.310707, 354.538, -168.735, -28429, 13318, 00000000, 354.195703125
170, 5.341812, 354.538, -167.612, -28429, 13318, 00000000, 354.195703125
171, 5.373139, 354.538, -166.486, -28429, 13318, 00000000, 354.195703125
172, 5.404200, 354.538, -165.365, -28429, 13318, 00000000, 354.195703125
173, 5.435662, 354.538, -164.235, -28429, 13318, 00000000, 354.195703125
174, 5.466917, 354.538, -163.111, -28429, 13318, 00000000, 354.195703125
175, 5.497973, 354.538, -161.992, -28429, 13318, 00000000, 354.195703125
176, 5.529292, 354.538, -160.865, -28429, 13318, 00000000, 354.195703125
177, 5.560599, 354.538, -159.738, -28429, 13318, 00000000, 354.195703125
178, 5.591649, 354.538, -158.620, -28429, 13318, 00000000, 354.195703125
179, 5.623081, 354.538, -157.488, -28429, 13318, 00000000, 354.195703125
180, 5.654152, 354.538, -156.369, -28429, 13318, 00000000, 354.195703125
181, 5.685561, 354.538, -155.239, -28429, 13318, 00000000, 354.195703125
182, 5.716692, 354.538, -154.120, -28429, 13318, 00000000, 354.195703125
183, 5.747742, 354.538, -152.998, -28429, 13318, 00000000, 354.195703125
184, 5.779276, 354.538, -151.866, -28429, 13318, 00000000, 354.195703125
185, 5.810235, 354.538, -150.749, -28429, 13318, 00000000, 354.195703125
186, 5.841674, 354.538, -149.618, -28429, 13318, 00000000, 354.195703125
187, 5.872873, 354.538, -148.495, -28429, 13318, 00000000, 354.195703125
188, 5.903979, 354.538, -147.373, -28429, 13318, 00000000, 354.195703125
189, 5.935433, 354.538, -146.243, -28429, 13318, 00000000, 354.195703125
190, 5.966597, 354.538, -145.122, -28429, 13318, 00000000, 354.195703125
191, 5.997636, 354.538, -143.999, -28429, 13318, 00000000, 354.195703125
192, 6.029054, 354.538, -142.874, -28429, 13318, 00000000, 354.195703125
193, 6.060079, 354.538, -141.748, -28429, 13318, 00000000, 354.195703125
194, 6.091557, 354.538, -140.624, -28429, 13318, 00000000, 354.195703125
195, 6.122776, 354.538, -139.500, -28429, 13318, 00000000, 354.195703125
196, 6.153815, 354.538, -138.377, -28429, 13318, 00000000, 354.195703125
197, 6.185197, 354.538, -137.252, -28429, 13318, 00000000, 354.195703125
198, 6.216418, 354.538, -136.127, -28429, 13318, 00000000, 354.195703125
199, 6.247706, 354.538, -135.002, -28429, 13318, 00000000, 354.195703125
200, 6.279013, 354.538, -133.868, -28429, 13318, 00000000, 354.195703125
201, 6.310059, 354.538, -132.749, -28429, 13318, 00000000, 354.195703125
202, 6.341445, 354.538, -131.624, -28429, 13318, 00000000, 354.195703125
203, 6.372642, 354.538, -130.500, -28429, 13318, 00000000, 354.195703125
204, 6.403673, 354.538, -129.377, -28429, 13318, 00000000, 354.195703125
205, 6.435045, 354.538, -128.252, -28429, 13318, 00000000, 354.195703125
206, 6.466307, 354.538, -127.123, -28429, 13318, 00000000, 354.195703125
207, 6.497607, 354.538, -126.000, -28429, 13318, 00000000, 354.195703125
208, 6.528848, 354.538, -124.874, -28429, 13318, 00000000, 354.195703125
209, 6.559844, 354.538, -123.749, -28429, 13318, 00000000, 354.195703125
210, 6.591264, 354.538, -122.625, -28429, 13318, 00000000, 354.195703125
211, 6.622483, 354.538, -121.501, -28429, 13318, 00000000, 354.195703125
212, 6.653682, 354.538, -120.377, -28429, 13318, 00000000, 354.195703125
213, 6.684938, 354.538, -119.248, -28429, 13318, 00000000, 354.195703125
214, 6.716011, 354.538, -118.124, -28429, 13318, 00000000, 354.195703125
215, 6.747434, 354.538, -117.000, -28429, 13318, 00000000, 354.195703125
216, 6.778592, 354.538, -115.876, -28429, 13318, 00000000, 354.195703125
217, 6.809744, 354.538, -114.751, -28429, 13318, 00000000, 354.195703125
218, 6.841036, 354.538, -113.624, -28429, 13318, 00000000, 354.195703125
219, 6.872210, 354.538, -112.498, -28429, 13318, 00000000, 354.195703125
220, 6.903550, 354.538, -111.376, -28429, 13318, 00000000, 354.195703125
221, 6.934798, 354.538, -110.252, -28429, 13318, 00000000, 354.195703125
222, 6.965882, 354.538, -109.124, -28429, 13318, 00000000, 354.195703125
223, 6.997216, 354.538, -107.998, -28429, 13318, 00000000, 354.195703125
224, 7.028424, 354.538, -106.874, -28429, 13318, 00000000, 354.195703125
225, 7.059718, 354.538, -105.748, -28429, 13318, 00000000, 354.195703125
226, 7.090939, 354.538, -104.625, -28429, 13318, 00000000, 354.195703125
227, 7.121978, 354.538, -103.499, -28429, 13318, 00000000, 354.195703125
228, 7.153362, 354.538, -102.377, -28429, 13318, 00000000, 354.195703125
229, 7.184705, 354.538, -101.248, -28429, 13318, 00000000, 354.195703125
230, 7.215705, 354.538, -100.123, -28429, 13318, 00000000, 354.195703125
231, 7.247070, 354.538, -99.001, -28429, 13318, 00000000, 354.195703125
232, 7.278161, 354.538, -97.873, -28429, 13318, 00000000, 354.195703125
233, 7.309526, 354.538, -96.750, -28429, 13318, 00000000, 354.195703125
234, 7.340840, 354.538, -95.624, -28429, 13318, 00000000, 354.195703125
235, 7.371898, 354.538, -94.500, -28429, 13318, 00000000, 354.195703125
236, 7.403287, 354.538, -93.377, -28429, 13318, 00000000, 354.195703125
237, 7.434445, 354.538, -92.251, -28429, 13318, 00000000, 354.195703125
238, 7.465696, 354.538, -91.127, -28429, 13318, 00000000, 354.195703125
239, 7.496928, 354.538, -89.998, -28429, 13318, 00000000, 354.195703125
240, 7.528087, 354.538, -88.876, -28429, 13318, 00000000, 354.195703125
241, 7.559435, 354.538, -87.751, -28429, 13318, 00000000, 354.195703125
242, 7.590626, 354.538, -86.624, -28429, 13318, 00000000, 354.195703125
243, 7.621735, 354.538, -85.498, -28429, 13318, 00000000, 354.195703125
244, 7.653146, 354.538, -84.374, -28429, 13318, 00000000, 354.195703125
245, 7.684133, 354.538, -83.249, -28429, 13318, 00000000, 354.195703125
246, 7.715607, 354.538, -82.125, -28429, 13318, 00000000, 354.195703125
247, 7.746877, 354.538, -81.000, -28429, 13318, 00000000, 354.195703125
248, 7.777980, 354.538, -79.873, -28429, 13318, 00000000, 354.195703125
249, 7.809237, 354.538, -78.749, -28429, 13318, 00000000, 354.195703125
250, 7.840566, 354.538, -77.626, -28429, 13318, 00000000, 354.195703125
251, 7.871781, 354.538, -76.501, -28429, 13318, 00000000, 354.195703125
252, 7.903013, 354.538, -75.373, -28429, 13318, 00000000, 354.195703125
253, 7.934090, 354.538, -74.251, -28429, 13318, 00000000, 354.195703125
254, 7.965403, 354.538, -73.124, -28429, 13318, 00000000, 354.195703125
255, 7.996721, 354.538, -71.998, -28429, 13318, 00000000, 354.195703125
256, 8.027782, 354.538, -70.874, -28429, 13318, 00000000, 354.195703125
257, 8.059209, 354.538, -69.748, -28429, 13318, 00000000, 354.195703125
258, 8.090227, 354.538, -68.624, -28429, 13318, 00000000, 354.195703125
259, 8.121686, 354.538, -67.501, -28429, 13318, 00000000, 354.195703125
260, 8.152905, 354.538, -66.374, -28429, 13318, 00000000, 354.195703125
261, 8.183902, 354.538, -65.248, -28429, 13318, 00000000, 354.195703125
262, 8.215362, 354.538, -64.125, -28429, 13318, 00000000, 354.195703125
263, 8.246599, 354.538, -62.997, -28429, 13318, 00000000, 354.195703125
264, 8.277802, 354.538, -61.875, -28429, 13318, 00000000, 354.195703125
265, 8.309014, 354.538, -60.751, -28429, 13318, 00000000, 354.195703125
266, 8.340067, 354.538, -59.624, -28429, 13318, 00000000, 354.195703125
267, 8.371494, 354.538, -58.498, -28429, 13318, 00000000, 354.195703125
268, 8.402725, 354.538, -57.376, -28429, 13318, 00000000, 354.195703125
269, 8.433798, 354.538, -56.251, -28429, 13318, 00000000, 354.195703125
270, 8.465116, 354.538, -55.123, -28429, 13318, 00000000, 354.195703125
271, 8.496255, 354.538, -53.999, -28429, 13318, 00000000, 354.195703125
272, 8.527664, 354.538, -52.873, -28429, 13318, 00000000, 354.195703125
273, 8.558924, 354.538, -51.750, -28429, 13318, 00000000, 354.195703125
