Data Counter, Data Time, Angle, Counter, Left Encoder Counts, Right Encoder Counts, Bumper Byte, Desired Heading
0, 0.029907, 30.000, 1.154, 8007, -7667, 00000000, 30.0
1, 0.060808, 30.000, 2.272, 8007, -7667, 00000000, 30.0
2, 0.092228, 30.000, 3.390, 8007, -7667, 00000000, 30.0
3, 0.123295, 30.000, 4.511, 8007, -7667, 00000000, 30.0
4, 0.154639, 30.000, 5.639, 8007, -7667, 00000000, 30.0
5, 0.185886, 30.000, 6.763, 8007, -7667, 00000000, 30.0
6, 0.217003, 30.000, 7.888, 8007, -7667, 00000000, 30.0
7, 0.248432, 30.000, 9.018, 8007, -7667, 00000000, 30.0
8, 0.279629, 30.000, 10.136, 8007, -7667, 00000000, 30.0
9, 0.310840, 30.000, 11.266, 8007, -7667, 00000000, 30.0
10, 0.342085, 30.000, 12.391, 8007, -7667, 00000000, 30.0
11, 0.373296, 30.000, 13.508, 8007, -7667, 00000000, 30.0
12, 0.404585, 30.000, 14.633, 8007, -7667, 00000000, 30.0
13, 0.435749, 30.000, 15.758, 8007, -7667, 00000000, 30.0
14, 0.466815, 30.000, 16.883, 8007, -7667, 00000000, 30.0
15, 0.498259, 30.000, 18.012, 8007, -7667, 00000000, 30.0
16, 0.529351, 30.000, 19.130, 8007, -7667, 00000000, 30.0
17, 0.560732, 30.000, 20.254, 8007, -7667, 00000000, 30.0
18, 0.591918, 30.000, 21.385, 8007, -7667, 00000000, 30.0
19, 0.623161, 30.000, 22.503, 8007, -7667, 00000000, 30.0
20, 0.654360, 30.000, 23.628, 8007, -7667, 00000000, 30.0
21, 0.685636, 30.000, 24.753, 8007, -7667, 00000000, 30.0
22, 0.716854, 30.000, 25.883, 8007, -7667, 00000000, 30.0
23, 0.748147, 30.000, 27.007, 8007, -7667, 00000000, 30.0
24, 0.779195, 30.000, 28.126, 8007, -7667, 00000000, 30.0
25, 0.810514, 30.000, 29.250, 8007, -7667, 00000000, 30.0
26, 0.841818, 30.000, 30.374, 8007, -7667, 00000000, 30.0
27, 0.872909, 30.000, 31.502, 8007, -7667, 00000000, 30.0
28, 0.904286, 30.000, 32.629, 8007, -7667, 00000000, 30.0
29, 0.935328, 30.000, 33.751, 8007, -7667, 00000000, 30.0
30, 0.966710, 30.000, 34.877, 8007, -7667, 00000000, 30.0
31, 0.998010, 30.000, 36.002, 8007, -7667, 00000000, 30.0
32, 1.029018, 30.000, 37.124, 8007, -7667, 00000000, 30.0
33, 1.060358, 30.000, 38.249, 8007, -7667, 00000000, 30.0
34, 1.091650, 30.000, 39.377, 8007, -7667, 00000000, 30.0
35, 1.122748, 30.000, 40.498, 8007, -7667, 00000000, 30.0
36, 1.154101, 30.000, 41.627, 8007, -7667, 00000000, 30.0
37, 1.185160, 30.000, 42.749, 8007, -7667, 00000000, 30.0
38, 1.216540, 30.000, 43.876, 8007, -7667, 00000000, 30.0
39, 1.247749, 30.000, 44.998, 8007, -7667, 00000000, 30.0
40, 1.278911, 30.000, 46.124, 8007, -7667, 00000000, 30.0
41, 1.310314, 30.000, 47.252, 8007, -7667, 00000000, 30.0
42, 1.341555, 30.000, 48.374, 8007, -7667, 00000000, 30.0
43, 1.372709, 30.000, 49.499, 8007, -7667, 00000000, 30.0
44, 1.403971, 30.000, 50.624, 8007, -7667, 00000000, 30.0
45, 1.435001, 30.000, 51.752, 8007, -7667, 00000000, 30.0
46, 1.466513, 30.000, 52.876, 8007, -7667, 00000000, 30.0
47, 1.497622, 30.000, 54.001, 8007, -7667, 00000000, 30.0
48, 1.528693, 30.000, 55.173, 8007, -7667, 00000000, 30.0
49, 1.560080, 30.000, 56.251, 8007, -7667, 00000000, 30.0
50, 1.591298, 30.000, 57.374, 8007, -7667, 00000000, 30.0
51, 1.622601, 30.000, 58.501, 8007, -7667, 00000000, 30.0
52, 1.653822, 30.000, 59.623, 8007, -7667, 00000000, 30.0
53, 1.684923, 30.000, 60.752, 8007, -7667, 00000000, 30.0
54, 1.716253, 30.000, 61.874, 8007, -7667, 00000000, 30.0
55, 1.747508, 30.000, 62.998, 8007, -7667, 00000000, 30.0
56, 1.778762, 30.000, 64.126, 8007, -7667, 00000000, 30.0
57, 1.809936, 30.000, 65.252, 8007, -7667, 00000000, 30.0
58, 1.841068, 30.000, 66.377, 8007, -7667, 00000000, 30.0
59, 1.872493, 30.000, 67.501, 8007, -7667, 00000000, 30.0
60, 1.903719, 30.000, 68.625, 8007, -7667, 00000000, 30.0
61, 1.934685, 30.000, 69.751, 8007, -7667, 00000000, 30.0
62, 1.966184, 30.000, 70.874, 8007, -7667, 00000000, 30.0
63, 1.997394, 30.000, 72.000, 8007, -7667, 00000000, 30.0
64, 2.028787, 30.000, 73.125, 8007, -7667, 00000000, 30.0
65, 2.059776, 30.000, 74.251, 8007, -7667, 00000000, 30.0
66, 2.090892, 30.000, 75.376, 8007, -7667, 00000000, 30.0
67, 2.122306, 30.000, 76.502, 8007, -7667, 00000000, 30.0
68, 2.153575, 30.000, 77.626, 8007, -7667, 00000000, 30.0
69, 2.184767, 30.000, 78.751, 8007, -7667, 00000000, 30.0
70, 2.215946, 30.000, 79.874, 8007, -7667, 00000000, 30.0
71, 2.247081, 30.000, 81.002, 8007, -7667, 00000000, 30.0
72, 2.278466, 30.000, 82.124, 8007, -7667, 00000000, 30.0
73, 2.309646, 30.000, 83.250, 8007, -7667, 00000000, 30.0
74, 2.340701, 30.000, 84.375, 8007, -7667, 00000000, 30.0
75, 2.372142, 30.000, 85.499, 8007, -7667, 00000000, 30.0
76, 2.403211, 30.000, 86.624, 8007, -7667, 00000000, 30.0
77, 2.434653, 30.000, 87.751, 8007, -7667, 00000000, 30.0
78, 2.465783, 30.000, 88.877, 8007, -7667, 00000000, 30.0
79, 2.496858, 30.000, 90.002, 8007, -7667, 00000000, 30.0
80, 2.528259, 30.000, 91.126, 8007, -7667, 00000000, 30.0
81, 2.559514, 30.000, 92.250, 8007, -7667, 00000000, 30.0
82, 2.590765, 30.000, 93.374, 8007, -7667, 00000000, 30.0
83, 2.621974, 30.000, 94.501, 8007, -7667, 00000000, 30.0
84, 2.653044, 30.000, 95.626, 8007, -7667, 00000000, 30.0
85, 2.684445, 30.000, 96.749, 8007, -7667, 00000000, 30.0
86, 2.715665, 30.000, 97.875, 8007, -7667, 00000000, 30.0
87, 2.746721, 30.000, 99.001, 8007, -7667, 00000000, 30.0
88, 2.778172, 30.000, 100.127, 8007, -7667, 00000000, 30.0
89, 2.809182, 30.000, 101.251, 8007, -7667, 00000000, 30.0
90, 2.840628, 30.000, 102.376, 8007, -7667, 00000000, 30.0
91, 2.871837, 30.000, 103.502, 8007, -7667, 00000000, 30.0
92, 2.902923, 30.000, 104.624, 8007, -7667, 00000000, 30.0
93, 2.934304, 30.000, 105.752, 8007, -7667, 00000000, 30.0
94, 2.965550, 30.000, 106.875, 8007, -7667, 00000000, 30.0
95, 2.996758, 30.000, 108.001, 8007, -7667, 00000000, 30.0
96, 3.027960, 30.000, 109.222, 8007, -7667, 00000000, 30.0
97, 3.059056, 30.000, 110.249, 8007, -7667, 00000000, 30.0
98, 3.090419, 30.000, 111.375, 8007, -7667, 00000000, 30.0
99, 3.121687, 30.000, 112.502, 8007, -7667, 00000000, 30.0
100, 3.152751, 30.000, 113.626, 8007, -7667, 00000000, 30.0
101, 3.184229, 30.000, 114.749, 8007, -7667, 00000000, 30.0
102, 3.215284, 30.000, 115.877, 8007, -7667, 00000000, 30.0
103, 3.246633, 30.000, 116.999, 8007, -7667, 00000000, 30.0
104, 3.277889, 30.000, 118.125, 8007, -7667, 00000000, 30.0
105, 3.308885, 30.000, 119.249, 8007, -7667, 00000000, 30.0
106, 3.340283, 30.000, 120.377, 8007, -7667, 00000000, 30.0
107, 3.371623, 30.000, 121.499, 8007, -7667, 00000000, 30.0
108, 3.402816, 30.000, 122.625, 8007, -7667, 00000000, 30.0
109, 3.433853, 30.000, 123.749, 8007, -7667, 00000000, 30.0
110, 3.465066, 30.000, 124.874, 8007, -7667, 00000000, 30.0
111, 3.496504, 30.000, 126.001, 8007, -7667, 00000000, 30.0
112, 3.527669, 30.000, 127.125, 8007, -7667, 00000000, 30.0
113, 3.558754, 30.000, 128.252, 8007, -7667, 00000000, 30.0
114, 3.590147, 30.000, 129.374, 8007, -7667, 00000000, 30.0
115, 3.621357, 30.000, 130.500, 8007, -7667, 00000000, 30.0
116, 3.652672, 30.000, 131.625, 8007, -7667, 00000000, 30.0
117, 3.683832, 30.000, 132.749, 8007, -7667, 00000000, 30.0
118, 3.714879, 30.000, 133.875, 8007, -7667, 00000000, 30.0
119, 3.746352, 30.000, 135.000, 8007, -7667, 00000000, 30.0
120, 3.777578, 30.000, 136.125, 8007, -7667, 00000000, 30.0
121, 3.808809, 30.000, 137.251, 8007, -7667, 00000000, 30.0
122, 3.839999, 30.000, 138.376, 8007, -7667, 00000000, 30.0
123, 3.871105, 30.000, 139.499, 8007, -7667, 00000000, 30.0
124, 3.902520, 30.000, 140.624, 8007, -7667, 00000000, 30.0
125, 3.933761, 30.000, 141.749, 8007, -7667, 00000000, 30.0
126, 3.964753, 30.000, 142.875, 8007, -7667, 00000000, 30.0
127, 3.996129, 30.000, 144.001, 8007, -7667, 00000000, 30.0
128, 4.027199, 30.000, 145.126, 8007, -7667, 00000000, 30.0
129, 4.058679, 30.000, 146.251, 8007, -7667, 00000000, 30.0
130, 4.089842, 30.000, 147.375, 8007, -7667, 00000000, 30.0
131, 4.120977, 30.000, 148.499, 8007, -7667, 00000000, 30.0
132, 4.152345, 30.000, 149.626, 8007, -7667, 00000000, 30.0
133, 4.183574, 30.000, 150.749, 8007, -7667, 00000000, 30.0
134, 4.214774, 30.000, 151.877, 8007, -7667, 00000000, 30.0
135, 4.246091, 30.000, 153.001, 8007, -7667, 00000000, 30.0
136, 4.277102, 30.000, 154.127, 8007, -7667, 00000000, 30.0
137, 4.308585, 30.000, 155.249, 8007, -7667, 00000000, 30.0
138, 4.339716, 30.000, 156.375, 8007, -7667, 00000000, 30.0
139, 4.370804, 30.000, 157.499, 8007, -7667, 00000000, 30.0
140, 4.402161, 30.000, 158.626, 8007, -7667, 00000000, 30.0
141, 4.433307, 30.000, 159.752, 8007, -7667, 00000000, 30.0
142, 4.464626, 30.000, 160.875, 8007, -7667, 00000000, 30.0
143, 4.495915, 30.000, 162.000, 8007, -7667, 00000000, 30.0
144, 4.526965, 30.000, 163.126, 8007, -7667, 00000000, 30.0
145, 4.558325, 30.000, 164.251, 8007, -7667, 00000000, 30.0
146, 4.589528, 30.000, 165.374, 8007, -7667, 00000000, 30.0
147, 4.620760, 30.000, 166.502, 8007, -7667, 00000000, 30.0
148, 4.652025, 30.000, 167.625, 8007, -7667, 00000000, 30.0
149, 4.683307, 30.000, 168.750, 8007, -7667, 00000000, 30.0
150, 4.714538, 30.000, 169.874, 8007, -7667, 00000000, 30.0
151, 4.745727, 30.000, 171.002, 8007, -7667, 00000000, 30.0
152, 4.776865, 30.000, 172.125, 8007, -7667, 00000000, 30.0
153, 4.808179, 30.000, 173.249, 8007, -7667, 00000000, 30.0
154, 4.839298, 30.000, 174.377, 8007, -7667, 00000000, 30.0
155, 4.870673, 30.000, 175.499, 8007, -7667, 00000000, 30.0
156, 4.901916, 30.000, 176.626, 8007, -7667, 00000000, 30.0
157, 4.933091, 30.000, 177.749, 8007, -7667, 00000000, 30.0
158, 4.964413, 30.000, 178.876, 8007, -7667, 00000000, 30.0
159, 4.995637, 30.000, 180.002, 8007, -7667, 00000000, 30.0
160, 5.026674, 30.000, 181.123, 8007, -7667, 00000000, 30.0
161, 5.058051, 30.000, 182.249, 8007, -7667, 00000000, 30.0
162, 5.089159, 30.000, 183.375, 8007, -7667, 00000000, 30.0
163, 5.120526, 30.000, 184.502, 8007, -7667, 00000000, 30.0
164, 5.151734, 30.000, 185.624, 8007, -7667, 00000000, 30.0
165, 5.182810, 30.000, 186.749, 8007, -7667, 00000000, 30.0
166, 5.214274, 30.000, 187.875, 8007, -7667, 00000000, 30.0
167, 5.245500, 30.000, 189.001, 8007, -7667, 00000000, 30.0
168, 5.276651, 30.000, 190.127, 8007, -7667, 00000000, 30.0
169, 5.307958, 30.000, 191.250, 8007, -7667, 00000000, 30.0
170, 5.338956, 30.000, 192.375, 8007, -7667, 00000000, 30.0
171, 5.370377, 30.000, 193.502, 8007, -7667, 00000000, 30.0
172, 5.401635, 30.000, 194.626, 8007, -7667, 00000000, 30.0
173, 5.432667, 30.000, 195.751, 8007, -7667, 00000000, 30.0
174, 5.464131, 30.000, 196.875, 8007, -7667, 00000000, 30.0
175, 5.495140, 30.000, 198.001, 8007, -7667, 00000000, 30.0
176, 5.526550, 30.000, 199.126, 8007, -7667, 00000000, 30.0
177, 5.557756, 30.000, 200.252, 8007, -7667, 00000000, 30.0
178, 5.588836, 30.000, 201.377, 8007, -7667, 00000000, 30.0
179, 5.620245, 30.000, 202.499, 8007, -7667, 00000000, 30.0
180, 5.651514, 30.000, 203.627, 8007, -7667, 00000000, 30.0
181, 5.682726, 30.000, 204.751, 8007, -7667, 00000000, 30.0
182, 5.713940, 30.000, 205.876, 8007, -7667, 00000000, 30.0
183, 5.744958, 30.000, 207.000, 8007, -7667, 00000000, 30.0
184, 5.776453, 30.000, 208.126, 8007, -7667, 00000000, 30.0
185, 5.807655, 30.000, 209.248, 8007, -7667, 00000000, 30.0
186, 5.838683, 30.000, 210.376, 8007, -7667, 00000000, 30.0
187, 5.870124, 30.000, 211.499, 8007, -7667, 00000000, 30.0
188, 5.901159, 30.000, 212.625, 8007, -7667, 00000000, 30.0
189, 5.932581, 30.000, 213.750, 8007, -7667, 00000000, 30.0
190, 5.963748, 30.000, 214.876, 8007, -7667, 00000000, 30.0
191, 5.994838, 30.000, 216.000, 8007, -7667, 00000000, 30.0
192, 6.026181, 30.000, 217.125, 8007, -7667, 00000000, 30.0
193, 6.057458, 30.000, 218.252, 8007, -7667, 00000000, 30.0
194, 6.088734, 30.000, 219.376, 8007, -7667, 00000000, 30.0
195, 6.119942, 30.000, 220.501, 8007, -7667, 00000000, 30.0
196, 6.150994, 30.000, 221.623, 8007, -7667, 00000000, 30.0
197, 6.182368, 30.000, 222.750, 8007, -7667, 00000000, 30.0
198, 6.213638, 30.000, 223.875, 8007, -7667, 00000000, 30.0
199, 6.244894, 30.000, 225.000, 8007, -7667, 00000000, 30.0
200, 6.276069, 30.000, 226.124, 8007, -7667, 00000000, 30.0
201, 6.307164, 30.000, 227.250, 8007, -7667, 00000000, 30.0
202, 6.338594, 30.000, 228.376, 8007, -7667, 00000000, 30.0
203, 6.369740, 30.000, 229.500, 8007, -7667, 00000000, 30.0
204, 6.400838, 30.000, 230.625, 8007, -7667, 00000000, 30.0
205, 6.432256, 30.000, 231.750, 8007, -7667, 00000000, 30.0
206, 6.463495, 30.000, 232.875, 8007, -7667, 00000000, 30.0
207, 6.494716, 30.000, 234.002, 8007, -7667, 00000000, 30.0
208, 6.525917, 30.000, 235.127, 8007, -7667, 00000000, 30.0
209, 6.557163, 30.000, 236.251, 8007, -7667, 00000000, 30.0
210, 6.588402, 30.000, 237.375, 8007, -7667, 00000000, 30.0
211, 6.619629, 30.000, 238.501, 8007, -7667, 00000000, 30.0
212, 6.650687, 30.000, 239.625, 8007, -7667, 00000000, 30.0
213, 6.682079, 30.000, 240.751, 8007, -7667, 00000000, 30.0
214, 6.713161, 30.000, 241.874, 8007, -7667, 00000000, 30.0
215, 6.744587, 30.000, 243.000, 8007, -7667, 00000000, 30.0
216, 6.775808, 30.000, 244.125, 8007, -7667, 00000000, 30.0
217, 6.806913, 30.000, 245.250, 8007, -7667, 00000000, 30.0
218, 6.838272, 30.000, 246.377, 8007, -7667, 00000000, 30.0
219, 6.869471, 30.000, 247.500, 8007, -7667, 00000000, 30.0
220, 6.900792, 30.000, 248.624, 8007, -7667, 00000000, 30.0
221, 6.931920, 30.000, 249.752, 8007, -7667, 00000000, 30.0
222, 6.962964, 30.000, 250.876, 8007, -7667, 00000000, 30.0
223, 6.994438, 30.000, 252.002, 8007, -7667, 00000000, 30.0
224, 7.025691, 30.000, 253.124, 8007, -7667, 00000000, 30.0
225, 7.056770, 30.000, 254.249, 8007, -7667, 00000000, 30.0
226, 7.088170, 30.000, 255.374, 8007, -7667, 00000000, 30.0
227, 7.119134, 30.000, 256.501, 8007, -7667, 00000000, 30.0
228, 7.150534, 30.000, 257.625, 8007, -7667, 00000000, 30.0
229, 7.181792, 30.000, 258.751, 8007, -7667, 00000000, 30.0
230, 7.212909, 30.000, 259.875, 8007, -7667, 00000000, 30.0
231, 7.244320, 30.000, 261.000, 8007, -7667, 00000000, 30.0
232, 7.275465, 30.000, 262.124, 8007, -7667, 00000000, 30.0
233, 7.306743, 30.000, 263.249, 8007, -7667, 00000000, 30.0
234, 7.337954, 30.000, 264.375, 8007, -7667, 00000000, 30.0
235, 7.369066, 30.000, 265.500, 8007, -7667, 00000000, 30.0
236, 7.400457, 30.000, 266.625, 8007, -7667, 00000000, 30.0
237, 7.431612, 30.000, 267.752, 8007, -7667, 00000000, 30.0
238, 7.462751, 30.000, 268.877, 8007, -7667, 00000000, 30.0
239, 7.494191, 30.000, 270.000, 8007, -7667, 00000000, 30.0
240, 7.525198, 30.000, 271.126, 8007, -7667, 00000000, 30.0
241, 7.556592, 30.000, 272.251, 8007, -7667, 00000000, 30.0
242, 7.587789, 30.000, 273.377, 8007, -7667, 00000000, 30.0
243, 7.618937, 30.000, 274.501, 8007, -7667, 00000000, 30.0
244, 7.650276, 30.000, 275.625, 8007, -7667, 00000000, 30.0
245, 7.681478, 30.000, 276.749, 8007, -7667, 00000000, 30.0
246, 7.712773, 30.000, 277.875, 8007, -7667, 00000000, 30.0
247, 7.743995, 30.000, 279.002, 8007, -7667, 00000000, 30.0
248, 7.775034, 30.000, 280.124, 8007, -7667, 00000000, 30.0
249, 7.806385, 30.000, 281.251, 8007, -7667, 00000000, 30.0
250, 7.837677, 30.000, 282.375, 8007, -7667, 00000000, 30.0
251, 7.868721, 30.000, 283.500, 8007, -7667, 00000000, 30.0
252, 7.900222, 30.000, 284.627, 8007, -7667, 00000000, 30.0
253, 7.931244, 30.000, 285.749, 8007, -7667, 00000000, 30.0
254, 7.962552, 30.000, 286.875, 8007, -7667, 00000000, 30.0
255, 7.993799, 30.000, 288.000, 8007, -7667, 00000000, 30.0
256, 8.024854, 30.000, 289.125, 8007, -7667, 00000000, 30.0
257, 8.056314, 30.000, 290.250, 8007, -7667, 00000000, 30.0
258, 8.087577, 30.000, 291.376, 8007, -7667, 00000000, 30.0
259, 8.118800, 30.000, 292.501, 8007, -7667, 00000000, 30.0
260, 8.149958, 30.000, 293.625, 8007, -7667, 00000000, 30.0
261, 8.181112, 30.000, 294.752, 8007, -7667, 00000000, 30.0
262, 8.212443, 30.000, 295.877, 8007, -7667, 00000000, 30.0
263, 8.243664, 30.000, 297.000, 8007, -7667, 00000000, 30.0
264, 8.274708, 30.000, 298.126, 8007, -7667, 00000000, 30.0
265, 8.306121, 30.000, 299.252, 8007, -7667, 00000000, 30.0
266, 8.337253, 30.000, 300.374, 8007, -7667, 00000000, 30.0
267, 8.368669, 30.000, 301.500, 8007, -7667, 00000000, 30.0
268, 8.399841, 30.000, 302.626, 8007, -7667, 00000000, 30.0
269, 8.430945, 30.000, 303.752, 8007, -7667, 00000000, 30.0
270, 8.462359, 30.000, 304.877, 8007, -7667, 00000000, 30.0
271, 8.493533, 30.000, 305.999, 8007, -7667, 00000000, 30.0
272, 8.524744, 30.000, 307.124, 8007, -7667, 00000000, 30.0
273, 8.556054, 30.000, 308.251, 8007, -7667, 00000000, 30.0
274, 8.587050, 30.000, 309.377, 8007, -7667, 00000000, 30.0
275, 8.618495, 30.000, 310.500, 8007, -7667, 00000000, 30.0
276, 8.649743, 30.000, 311.624, 8007, -7667, 00000000, 30.0
277, 8.680718, 30.000, 312.749, 8007, -7667, 00000000, 30.0
278, 8.712229, 30.000, 313.876, 8007, -7667, 00000000, 30.0
279, 8.743360, 30.000, 315.001, 8007, -7667, 00000000, 30.0
280, 8.774622, 30.000, 316.125, 8007, -7667, 00000000, 30.0
281, 8.805826, 30.000, 317.250, 8007, -7667, 00000000, 30.0
282, 8.836885, 30.000, 318.375, 8007, -7667, 00000000, 30.0
283, 8.868346, 30.000, 319.501, 8007, -7667, 00000000, 30.0
284, 8.899594, 30.000, 320.626, 8007, -7667, 00000000, 30.0
285, 8.930584, 30.000, 321.749, 8007, -7667, 00000000, 30.0
286, 8.962055, 30.000, 322.876, 8007, -7667, 00000000, 30.0
287, 8.993130, 30.000, 323.999, 8007, -7667, 00000000, 30.0
288, 9.024493, 30.000, 325.124, 8007, -7667, 00000000, 30.0
289, 9.055662, 30.000, 326.251, 8007, -7667, 00000000, 30.0
290, 9.086734, 30.000, 327.374, 8007, -7667, 00000000, 30.0
291, 9.118136, 30.000, 328.502, 8007, -7667, 00000000, 30.0
292, 9.149285, 30.000, 329.625, 8007, -7667, 00000000, 30.0
293, 9.180598, 30.000, -29.248, 8007, -7667, 00000000, 30.0
294, 9.211926, 30.000, -28.126, 8007, -7667, 00000000, 30.0
295, 9.242944, 30.000, -26.998, 8007, -7667, 00000000, 30.0
296, 9.274312, 30.000, -25.876, 8007, -7667, 00000000, 30.0
297, 9.305545, 30.000, -24.749, 8007, -7667, 00000000, 30.0
298, 9.336633, 30.000, -23.624, 8007, -7667, 00000000, 30.0
299, 9.368057, 30.000, -22.498, 8007, -7667, 00000000, 30.0
300, 9.399143, 30.000, -21.375, 8007, -7667, 00000000, 30.0
301, 9.430487, 30.000, -20.250, 8007, -7667, 00000000, 30.0
302, 9.461717, 30.000, -19.123, 8007, -7667, 00000000, 30.0
303, 9.492831, 30.000, -17.998, 8007, -7667, 00000000, 30.0
304, 9.524138, 30.000, -16.875, 8007, -7667, 00000000, 30.0
305, 9.555476, 30.000, -15.751, 8007, -7667, 00000000, 30.0
306, 9.586631, 30.000, -14.624, 8007, -7667, 00000000, 30.0
307, 9.617827, 30.000, -13.498, 8007, -7667, 00000000, 30.0
308, 9.648920, 30.000, -12.374, 8007, -7667, 00000000, 30.0
309, 9.680318, 30.000, -11.251, 8007, -7667, 00000000, 30.0
310, 9.711551, 30.000, -10.126, 8007, -7667, 00000000, 30.0
311, 9.742606, 30.000, -8.998, 8007, -7667, 00000000, 30.0
312, 9.774072, 30.000, -7.875, 8007, -7667, 00000000, 30.0
313, 9.805140, 30.000, -6.750, 8007, -7667, 00000000, 30.0
314, 9.836539, 30.000, -5.624, 8007, -7667, 00000000, 30.0
315, 9.867714, 30.000, -4.500, 8007, -7667, 00000000, 30.0
316, 9.898819, 30.000, -3.374, 8007, -7667, 00000000, 30.0
317, 9.930155, 30.000, -2.248, 8007, -7667, 00000000, 30.0
318, 9.961403, 30.000, -1.126, 8007, -7667, 00000000, 30.0
319, 9.992666, 30.000, 0.002, 8007, -7667, 00000000, 30.0
320, 10.023906, 30.000, 1.127, 8007, -7667, 00000000, 30.0
321, 10.054955, 30.000, 2.251, 8007, -7667, 00000000, 30.0
322, 10.086421, 30.000, 3.375, 8007, -7667, 00000010, 30.0
323, 10.117576, 30.000, 4.499, 8007, -7667, 00000010, 30.0
324, 10.148676, 30.000, 5.625, 8007, -7667, 00000010, 30.0
325, 10.180075, 30.000, 6.752, 8007, -7667, 00000010, 30.0
326, 10.211143, 30.000, 7.874, 8007, -7667, 00000010, 30.0
327, 10.242557, 30.000, 9.001, 8007, -7667, 00000010, 30.0
328, 10.273739, 30.000, 10.127, 8007, -7667, 00000010, 30.0
329, 10.304763, 30.000, 11.252, 8007, -7667, 00000010, 30.0
330, 10.336216, 30.000, 12.376, 8007, -7667, 00000000, 30.0
331, 10.367452, 30.000, 13.501, 8007, -7667, 00000000, 30.0
332, 10.398722, 30.000, 14.625, 8007, -7667, 00000000, 30.0
333, 10.429890, 30.000, 15.752, 8007, -7667, 00000000, 30.0
334, 10.461138, 30.000, 16.877, 8007, -7667, 00000000, 30.0
